[Measurement conditions]
Sample identification,
Comment,
Anode material,Cu
K-Alpha1 wavelength,1.5405980
K-Alpha2 wavelength,1.5444260
Ratio K-Alpha2/K-Alpha1,0.500
Monochromator used,NO
Generator voltage, 10
Tube current, 10
File date and time,21-May-2024 11:29
Unit cell,
h k l, 0 0 0
Scan axis,2Theta-Omega
Scan range,30.0100,129.9900
Scan step size,0.0200000
Omega offset,0.0000
No. of points, 4999
Scan type,CONTINUOUS
Time per step,0.50
[Scan points]
Angle,Intensity
30.0200,6.0
30.0400,4.0
30.0600,3.0
30.0800,4.0
30.1000,3.0
30.1200,4.0
30.1400,2.0
30.1600,6.0
30.1800,2.0
30.2000,3.0
30.2200,6.0
30.2400,8.0
30.2600,2.0
30.2800,4.0
30.3000,2.0
30.3200,1.0
30.3400,3.0
30.3600,10.0
30.3800,1.0
30.4000,2.0
30.4200,4.0
30.4400,2.0
30.4600,4.0
30.4800,3.0
30.5000,5.0
30.5200,4.0
30.5400,1.0
30.5600,3.0
30.5800,4.0
30.6000,9.0
30.6200,4.0
30.6400,5.0
30.6600,8.0
30.6800,12.0
30.7000,11.0
30.7200,11.0
30.7400,13.0
30.7600,12.0
30.7800,10.0
30.8000,12.0
30.8200,12.0
30.8400,6.0
30.8600,13.0
30.8800,14.0
30.9000,28.0
30.9200,39.0
30.9400,65.0
30.9600,86.0
30.9800,112.0
31.0000,130.0
31.0200,156.0
31.0400,144.0
31.0600,118.0
31.0800,73.0
31.1000,44.0
31.1200,38.0
31.1400,19.0
31.1600,18.0
31.1800,13.0
31.2000,14.0
31.2200,9.0
31.2400,6.0
31.2600,12.0
31.2800,9.0
31.3000,5.0
31.3200,7.0
31.3400,7.0
31.3600,3.0
31.3800,9.0
31.4000,8.0
31.4200,12.0
31.4400,12.0
31.4600,11.0
31.4800,11.0
31.5000,9.0
31.5200,7.0
31.5400,7.0
31.5600,7.0
31.5800,15.0
31.6000,6.0
31.6200,5.0
31.6400,5.0
31.6600,14.0
31.6800,8.0
31.7000,10.0
31.7200,12.0
31.7400,8.0
31.7600,10.0
31.7800,7.0
31.8000,8.0
31.8200,15.0
31.8400,7.0
31.8600,7.0
31.8800,12.0
31.9000,10.0
31.9200,9.0
31.9400,9.0
31.9600,14.0
31.9800,5.0
32.0000,8.0
32.0200,14.0
32.0400,10.0
32.0600,13.0
32.0800,3.0
32.1000,11.0
32.1200,15.0
32.1400,14.0
32.1600,10.0
32.1800,13.0
32.2000,20.0
32.2200,9.0
32.2400,9.0
32.2600,12.0
32.2800,11.0
32.3000,21.0
32.3200,12.0
32.3400,12.0
32.3600,8.0
32.3800,20.0
32.4000,9.0
32.4200,19.0
32.4400,21.0
32.4600,15.0
32.4800,18.0
32.5000,13.0
32.5200,21.0
32.5400,18.0
32.5600,24.0
32.5800,24.0
32.6000,21.0
32.6200,22.0
32.6400,23.0
32.6600,30.0
32.6800,29.0
32.7000,26.0
32.7200,30.0
32.7400,32.0
32.7600,33.0
32.7800,43.0
32.8000,51.0
32.8200,48.0
32.8400,82.0
32.8600,83.0
32.8800,112.0
32.9000,128.0
32.9200,137.0
32.9400,140.0
32.9600,175.0
32.9800,151.0
33.0000,96.0
33.0200,63.0
33.0400,72.0
33.0600,58.0
33.0800,69.0
33.1000,64.0
33.1200,60.0
33.1400,64.0
33.1600,86.0
33.1800,92.0
33.2000,87.0
33.2200,56.0
33.2400,77.0
33.2600,98.0
33.2800,93.0
33.3000,70.0
33.3200,98.0
33.3400,97.0
33.3600,83.0
33.3800,84.0
33.4000,87.0
33.4200,122.0
33.4400,117.0
33.4600,126.0
33.4800,130.0
33.5000,144.0
33.5200,160.0
33.5400,165.0
33.5600,175.0
33.5800,201.0
33.6000,207.0
33.6200,220.0
33.6400,260.0
33.6600,229.0
33.6800,259.0
33.7000,271.0
33.7200,311.0
33.7400,349.0
33.7600,318.0
33.7800,331.0
33.8000,388.0
33.8200,413.0
33.8400,423.0
33.8600,455.0
33.8800,522.0
33.9000,542.0
33.9200,648.0
33.9400,699.0
33.9600,749.0
33.9800,865.0
34.0000,970.0
34.0200,1129.0
34.0400,1315.0
34.0600,1489.0
34.0800,1798.0
34.1000,2110.0
34.1200,2602.0
34.1400,2966.0
34.1600,3538.0
34.1800,4189.0
34.2000,4854.0
34.2200,6006.0
34.2400,7183.0
34.2600,8760.0
34.2800,11223.0
34.3000,15416.0
34.3200,23600.0
34.3400,38123.0
34.3600,56310.0
34.3800,77936.0
34.4000,101150.0
34.4200,119401.0
34.4400,124814.0
34.4600,115318.0
34.4800,97388.0
34.5000,82016.0
34.5200,70126.0
34.5400,56346.0
34.5600,39838.0
34.5800,24380.0
34.6000,13752.0
34.6200,7788.0
34.6400,4476.0
34.6600,2914.0
34.6800,2123.0
34.7000,1716.0
34.7200,1384.0
34.7400,1207.0
34.7600,1077.0
34.7800,949.0
34.8000,858.0
34.8200,770.0
34.8400,691.0
34.8600,669.0
34.8800,597.0
34.9000,601.0
34.9200,543.0
34.9400,512.0
34.9600,467.0
34.9800,455.0
35.0000,449.0
35.0200,377.0
35.0400,390.0
35.0600,381.0
35.0800,328.0
35.1000,330.0
35.1200,307.0
35.1400,289.0
35.1600,248.0
35.1800,263.0
35.2000,219.0
35.2200,202.0
35.2400,200.0
35.2600,187.0
35.2800,161.0
35.3000,155.0
35.3200,137.0
35.3400,165.0
35.3600,119.0
35.3800,128.0
35.4000,113.0
35.4200,86.0
35.4400,97.0
35.4600,83.0
35.4800,77.0
35.5000,71.0
35.5200,88.0
35.5400,68.0
35.5600,59.0
35.5800,58.0
35.6000,57.0
35.6200,39.0
35.6400,42.0
35.6600,45.0
35.6800,50.0
35.7000,37.0
35.7200,42.0
35.7400,55.0
35.7600,41.0
35.7800,29.0
35.8000,21.0
35.8200,31.0
35.8400,25.0
35.8600,32.0
35.8800,33.0
35.9000,27.0
35.9200,36.0
35.9400,30.0
35.9600,35.0
35.9800,27.0
36.0000,26.0
36.0200,28.0
36.0400,38.0
36.0600,20.0
36.0800,31.0
36.1000,36.0
36.1200,38.0
36.1400,27.0
36.1600,27.0
36.1800,26.0
36.2000,36.0
36.2200,22.0
36.2400,30.0
36.2600,29.0
36.2800,34.0
36.3000,36.0
36.3200,24.0
36.3400,33.0
36.3600,27.0
36.3800,25.0
36.4000,21.0
36.4200,21.0
36.4400,24.0
36.4600,11.0
36.4800,16.0
36.5000,18.0
36.5200,15.0
36.5400,8.0
36.5600,14.0
36.5800,21.0
36.6000,19.0
36.6200,11.0
36.6400,16.0
36.6600,11.0
36.6800,15.0
36.7000,16.0
36.7200,22.0
36.7400,11.0
36.7600,15.0
36.7800,15.0
36.8000,19.0
36.8200,17.0
36.8400,14.0
36.8600,18.0
36.8800,18.0
36.9000,16.0
36.9200,17.0
36.9400,20.0
36.9600,21.0
36.9800,20.0
37.0000,13.0
37.0200,14.0
37.0400,18.0
37.0600,14.0
37.0800,22.0
37.1000,25.0
37.1200,22.0
37.1400,22.0
37.1600,16.0
37.1800,17.0
37.2000,29.0
37.2200,29.0
37.2400,28.0
37.2600,33.0
37.2800,43.0
37.3000,35.0
37.3200,38.0
37.3400,43.0
37.3600,52.0
37.3800,48.0
37.4000,62.0
37.4200,75.0
37.4400,77.0
37.4600,177.0
37.4800,286.0
37.5000,449.0
37.5200,608.0
37.5400,710.0
37.5600,779.0
37.5800,864.0
37.6000,954.0
37.6200,1169.0
37.6400,1402.0
37.6600,2444.0
37.6800,6635.0
37.7000,11401.0
37.7200,11703.0
37.7400,9981.0
37.7600,6128.0
37.7800,5525.0
37.8000,6753.0
37.8200,6570.0
37.8400,5385.0
37.8600,2674.0
37.8800,974.0
37.9000,501.0
37.9200,324.0
37.9400,255.0
37.9600,202.0
37.9800,199.0
38.0000,192.0
38.0200,142.0
38.0400,152.0
38.0600,139.0
38.0800,137.0
38.1000,138.0
38.1200,124.0
38.1400,131.0
38.1600,136.0
38.1800,112.0
38.2000,121.0
38.2200,86.0
38.2400,115.0
38.2600,99.0
38.2800,89.0
38.3000,66.0
38.3200,71.0
38.3400,83.0
38.3600,84.0
38.3800,80.0
38.4000,61.0
38.4200,84.0
38.4400,53.0
38.4600,65.0
38.4800,56.0
38.5000,59.0
38.5200,37.0
38.5400,53.0
38.5600,42.0
38.5800,50.0
38.6000,52.0
38.6200,40.0
38.6400,48.0
38.6600,50.0
38.6800,39.0
38.7000,42.0
38.7200,36.0
38.7400,37.0
38.7600,36.0
38.7800,26.0
38.8000,29.0
38.8200,30.0
38.8400,24.0
38.8600,22.0
38.8800,25.0
38.9000,21.0
38.9200,27.0
38.9400,20.0
38.9600,19.0
38.9800,21.0
39.0000,12.0
39.0200,12.0
39.0400,15.0
39.0600,12.0
39.0800,13.0
39.1000,8.0
39.1200,9.0
39.1400,17.0
39.1600,7.0
39.1800,12.0
39.2000,10.0
39.2200,8.0
39.2400,8.0
39.2600,13.0
39.2800,3.0
39.3000,10.0
39.3200,5.0
39.3400,6.0
39.3600,3.0
39.3800,4.0
39.4000,4.0
39.4200,8.0
39.4400,9.0
39.4600,6.0
39.4800,5.0
39.5000,5.0
39.5200,3.0
39.5400,5.0
39.5600,6.0
39.5800,4.0
39.6000,3.0
39.6200,10.0
39.6400,1.0
39.6600,2.0
39.6800,2.0
39.7000,7.0
39.7200,5.0
39.7400,5.0
39.7600,7.0
39.7800,12.0
39.8000,7.0
39.8200,5.0
39.8400,0.0
39.8600,3.0
39.8800,2.0
39.9000,3.0
39.9200,2.0
39.9400,5.0
39.9600,5.0
39.9800,3.0
40.0000,5.0
40.0200,2.0
40.0400,1.0
40.0600,1.0
40.0800,1.0
40.1000,2.0
40.1200,2.0
40.1400,3.0
40.1600,4.0
40.1800,4.0
40.2000,2.0
40.2200,5.0
40.2400,4.0
40.2600,4.0
40.2800,0.0
40.3000,3.0
40.3200,3.0
40.3400,3.0
40.3600,5.0
40.3800,6.0
40.4000,5.0
40.4200,3.0
40.4400,5.0
40.4600,3.0
40.4800,3.0
40.5000,0.0
40.5200,2.0
40.5400,1.0
40.5600,1.0
40.5800,2.0
40.6000,0.0
40.6200,5.0
40.6400,3.0
40.6600,2.0
40.6800,2.0
40.7000,6.0
40.7200,1.0
40.7400,2.0
40.7600,3.0
40.7800,3.0
40.8000,3.0
40.8200,2.0
40.8400,4.0
40.8600,6.0
40.8800,5.0
40.9000,3.0
40.9200,5.0
40.9400,6.0
40.9600,2.0
40.9800,0.0
41.0000,4.0
41.0200,1.0
41.0400,5.0
41.0600,1.0
41.0800,2.0
41.1000,3.0
41.1200,0.0
41.1400,1.0
41.1600,0.0
41.1800,0.0
41.2000,4.0
41.2200,5.0
41.2400,2.0
41.2600,3.0
41.2800,4.0
41.3000,2.0
41.3200,1.0
41.3400,0.0
41.3600,3.0
41.3800,7.0
41.4000,4.0
41.4200,4.0
41.4400,1.0
41.4600,2.0
41.4800,5.0
41.5000,3.0
41.5200,3.0
41.5400,1.0
41.5600,3.0
41.5800,4.0
41.6000,4.0
41.6200,1.0
41.6400,1.0
41.6600,2.0
41.6800,0.0
41.7000,3.0
41.7200,1.0
41.7400,2.0
41.7600,0.0
41.7800,1.0
41.8000,3.0
41.8200,0.0
41.8400,4.0
41.8600,2.0
41.8800,2.0
41.9000,3.0
41.9200,2.0
41.9400,4.0
41.9600,3.0
41.9800,1.0
42.0000,3.0
42.0200,1.0
42.0400,1.0
42.0600,4.0
42.0800,1.0
42.1000,2.0
42.1200,4.0
42.1400,1.0
42.1600,3.0
42.1800,1.0
42.2000,3.0
42.2200,2.0
42.2400,4.0
42.2600,2.0
42.2800,0.0
42.3000,2.0
42.3200,2.0
42.3400,0.0
42.3600,4.0
42.3800,3.0
42.4000,2.0
42.4200,4.0
42.4400,4.0
42.4600,1.0
42.4800,4.0
42.5000,1.0
42.5200,2.0
42.5400,1.0
42.5600,3.0
42.5800,1.0
42.6000,2.0
42.6200,1.0
42.6400,2.0
42.6600,1.0
42.6800,0.0
42.7000,1.0
42.7200,2.0
42.7400,1.0
42.7600,1.0
42.7800,2.0
42.8000,0.0
42.8200,1.0
42.8400,2.0
42.8600,2.0
42.8800,2.0
42.9000,1.0
42.9200,1.0
42.9400,3.0
42.9600,1.0
42.9800,3.0
43.0000,3.0
43.0200,1.0
43.0400,3.0
43.0600,1.0
43.0800,1.0
43.1000,4.0
43.1200,2.0
43.1400,3.0
43.1600,1.0
43.1800,4.0
43.2000,4.0
43.2200,1.0
43.2400,2.0
43.2600,4.0
43.2800,2.0
43.3000,0.0
43.3200,1.0
43.3400,4.0
43.3600,0.0
43.3800,4.0
43.4000,5.0
43.4200,3.0
43.4400,2.0
43.4600,2.0
43.4800,2.0
43.5000,2.0
43.5200,3.0
43.5400,4.0
43.5600,1.0
43.5800,2.0
43.6000,1.0
43.6200,2.0
43.6400,1.0
43.6600,1.0
43.6800,2.0
43.7000,1.0
43.7200,1.0
43.7400,2.0
43.7600,0.0
43.7800,3.0
43.8000,1.0
43.8200,2.0
43.8400,6.0
43.8600,2.0
43.8800,0.0
43.9000,1.0
43.9200,0.0
43.9400,2.0
43.9600,1.0
43.9800,4.0
44.0000,2.0
44.0200,2.0
44.0400,1.0
44.0600,2.0
44.0800,0.0
44.1000,2.0
44.1200,1.0
44.1400,2.0
44.1600,1.0
44.1800,2.0
44.2000,2.0
44.2200,1.0
44.2400,3.0
44.2600,4.0
44.2800,4.0
44.3000,0.0
44.3200,1.0
44.3400,1.0
44.3600,1.0
44.3800,0.0
44.4000,0.0
44.4200,3.0
44.4400,1.0
44.4600,1.0
44.4800,0.0
44.5000,1.0
44.5200,1.0
44.5400,3.0
44.5600,4.0
44.5800,1.0
44.6000,2.0
44.6200,1.0
44.6400,3.0
44.6600,0.0
44.6800,2.0
44.7000,0.0
44.7200,2.0
44.7400,0.0
44.7600,2.0
44.7800,1.0
44.8000,3.0
44.8200,1.0
44.8400,2.0
44.8600,1.0
44.8800,2.0
44.9000,2.0
44.9200,1.0
44.9400,0.0
44.9600,1.0
44.9800,1.0
45.0000,2.0
45.0200,0.0
45.0400,2.0
45.0600,1.0
45.0800,4.0
45.1000,1.0
45.1200,2.0
45.1400,2.0
45.1600,1.0
45.1800,1.0
45.2000,3.0
45.2200,1.0
45.2400,1.0
45.2600,3.0
45.2800,2.0
45.3000,1.0
45.3200,0.0
45.3400,0.0
45.3600,1.0
45.3800,1.0
45.4000,1.0
45.4200,1.0
45.4400,1.0
45.4600,0.0
45.4800,0.0
45.5000,2.0
45.5200,2.0
45.5400,1.0
45.5600,2.0
45.5800,2.0
45.6000,0.0
45.6200,0.0
45.6400,3.0
45.6600,4.0
45.6800,1.0
45.7000,2.0
45.7200,1.0
45.7400,1.0
45.7600,1.0
45.7800,0.0
45.8000,1.0
45.8200,0.0
45.8400,1.0
45.8600,1.0
45.8800,1.0
45.9000,1.0
45.9200,0.0
45.9400,3.0
45.9600,2.0
45.9800,1.0
46.0000,3.0
46.0200,0.0
46.0400,0.0
46.0600,1.0
46.0800,4.0
46.1000,3.0
46.1200,1.0
46.1400,2.0
46.1600,0.0
46.1800,1.0
46.2000,4.0
46.2200,0.0
46.2400,1.0
46.2600,5.0
46.2800,2.0
46.3000,2.0
46.3200,0.0
46.3400,1.0
46.3600,1.0
46.3800,1.0
46.4000,0.0
46.4200,3.0
46.4400,2.0
46.4600,4.0
46.4800,1.0
46.5000,3.0
46.5200,2.0
46.5400,1.0
46.5600,1.0
46.5800,1.0
46.6000,0.0
46.6200,0.0
46.6400,1.0
46.6600,1.0
46.6800,3.0
46.7000,0.0
46.7200,3.0
46.7400,1.0
46.7600,0.0
46.7800,3.0
46.8000,3.0
46.8200,0.0
46.8400,2.0
46.8600,2.0
46.8800,2.0
46.9000,1.0
46.9200,2.0
46.9400,4.0
46.9600,0.0
46.9800,1.0
47.0000,1.0
47.0200,3.0
47.0400,1.0
47.0600,2.0
47.0800,1.0
47.1000,3.0
47.1200,0.0
47.1400,2.0
47.1600,1.0
47.1800,1.0
47.2000,3.0
47.2200,1.0
47.2400,5.0
47.2600,3.0
47.2800,1.0
47.3000,1.0
47.3200,2.0
47.3400,2.0
47.3600,3.0
47.3800,1.0
47.4000,2.0
47.4200,0.0
47.4400,2.0
47.4600,0.0
47.4800,1.0
47.5000,1.0
47.5200,5.0
47.5400,0.0
47.5600,1.0
47.5800,2.0
47.6000,1.0
47.6200,0.0
47.6400,2.0
47.6600,2.0
47.6800,3.0
47.7000,2.0
47.7200,2.0
47.7400,1.0
47.7600,2.0
47.7800,0.0
47.8000,0.0
47.8200,1.0
47.8400,1.0
47.8600,0.0
47.8800,1.0
47.9000,1.0
47.9200,1.0
47.9400,2.0
47.9600,1.0
47.9800,0.0
48.0000,1.0
48.0200,2.0
48.0400,0.0
48.0600,1.0
48.0800,0.0
48.1000,2.0
48.1200,0.0
48.1400,1.0
48.1600,2.0
48.1800,0.0
48.2000,2.0
48.2200,2.0
48.2400,0.0
48.2600,0.0
48.2800,2.0
48.3000,3.0
48.3200,2.0
48.3400,3.0
48.3600,2.0
48.3800,3.0
48.4000,2.0
48.4200,1.0
48.4400,3.0
48.4600,1.0
48.4800,1.0
48.5000,1.0
48.5200,1.0
48.5400,0.0
48.5600,1.0
48.5800,1.0
48.6000,2.0
48.6200,1.0
48.6400,2.0
48.6600,1.0
48.6800,0.0
48.7000,0.0
48.7200,0.0
48.7400,4.0
48.7600,1.0
48.7800,1.0
48.8000,0.0
48.8200,2.0
48.8400,1.0
48.8600,2.0
48.8800,4.0
48.9000,1.0
48.9200,2.0
48.9400,1.0
48.9600,1.0
48.9800,1.0
49.0000,3.0
49.0200,4.0
49.0400,0.0
49.0600,1.0
49.0800,1.0
49.1000,1.0
49.1200,2.0
49.1400,0.0
49.1600,3.0
49.1800,3.0
49.2000,1.0
49.2200,0.0
49.2400,1.0
49.2600,3.0
49.2800,0.0
49.3000,4.0
49.3200,1.0
49.3400,1.0
49.3600,1.0
49.3800,0.0
49.4000,2.0
49.4200,1.0
49.4400,1.0
49.4600,0.0
49.4800,2.0
49.5000,2.0
49.5200,1.0
49.5400,1.0
49.5600,0.0
49.5800,2.0
49.6000,0.0
49.6200,0.0
49.6400,3.0
49.6600,0.0
49.6800,3.0
49.7000,2.0
49.7200,0.0
49.7400,1.0
49.7600,0.0
49.7800,1.0
49.8000,1.0
49.8200,1.0
49.8400,0.0
49.8600,2.0
49.8800,0.0
49.9000,1.0
49.9200,0.0
49.9400,4.0
49.9600,0.0
49.9800,1.0
50.0000,1.0
50.0200,1.0
50.0400,2.0
50.0600,1.0
50.0800,0.0
50.1000,0.0
50.1200,2.0
50.1400,1.0
50.1600,0.0
50.1800,3.0
50.2000,2.0
50.2200,0.0
50.2400,0.0
50.2600,1.0
50.2800,0.0
50.3000,1.0
50.3200,0.0
50.3400,2.0
50.3600,1.0
50.3800,1.0
50.4000,1.0
50.4200,1.0
50.4400,1.0
50.4600,0.0
50.4800,1.0
50.5000,1.0
50.5200,0.0
50.5400,1.0
50.5600,0.0
50.5800,1.0
50.6000,0.0
50.6200,1.0
50.6400,1.0
50.6600,0.0
50.6800,1.0
50.7000,5.0
50.7200,1.0
50.7400,2.0
50.7600,0.0
50.7800,3.0
50.8000,1.0
50.8200,1.0
50.8400,2.0
50.8600,0.0
50.8800,0.0
50.9000,2.0
50.9200,1.0
50.9400,1.0
50.9600,0.0
50.9800,1.0
51.0000,0.0
51.0200,1.0
51.0400,0.0
51.0600,1.0
51.0800,0.0
51.1000,0.0
51.1200,0.0
51.1400,0.0
51.1600,1.0
51.1800,1.0
51.2000,2.0
51.2200,1.0
51.2400,2.0
51.2600,2.0
51.2800,0.0
51.3000,0.0
51.3200,1.0
51.3400,1.0
51.3600,0.0
51.3800,1.0
51.4000,1.0
51.4200,1.0
51.4400,3.0
51.4600,1.0
51.4800,2.0
51.5000,4.0
51.5200,4.0
51.5400,0.0
51.5600,2.0
51.5800,2.0
51.6000,0.0
51.6200,1.0
51.6400,2.0
51.6600,1.0
51.6800,1.0
51.7000,1.0
51.7200,2.0
51.7400,3.0
51.7600,0.0
51.7800,1.0
51.8000,0.0
51.8200,1.0
51.8400,0.0
51.8600,2.0
51.8800,1.0
51.9000,0.0
51.9200,0.0
51.9400,0.0
51.9600,1.0
51.9800,0.0
52.0000,1.0
52.0200,1.0
52.0400,2.0
52.0600,1.0
52.0800,0.0
52.1000,0.0
52.1200,0.0
52.1400,2.0
52.1600,0.0
52.1800,0.0
52.2000,1.0
52.2200,1.0
52.2400,0.0
52.2600,0.0
52.2800,1.0
52.3000,1.0
52.3200,1.0
52.3400,1.0
52.3600,2.0
52.3800,1.0
52.4000,1.0
52.4200,2.0
52.4400,1.0
52.4600,3.0
52.4800,0.0
52.5000,1.0
52.5200,1.0
52.5400,0.0
52.5600,1.0
52.5800,0.0
52.6000,3.0
52.6200,1.0
52.6400,1.0
52.6600,1.0
52.6800,1.0
52.7000,4.0
52.7200,2.0
52.7400,1.0
52.7600,1.0
52.7800,0.0
52.8000,0.0
52.8200,2.0
52.8400,1.0
52.8600,3.0
52.8800,1.0
52.9000,1.0
52.9200,1.0
52.9400,3.0
52.9600,2.0
52.9800,0.0
53.0000,1.0
53.0200,2.0
53.0400,2.0
53.0600,0.0
53.0800,2.0
53.1000,1.0
53.1200,1.0
53.1400,2.0
53.1600,2.0
53.1800,1.0
53.2000,2.0
53.2200,1.0
53.2400,0.0
53.2600,0.0
53.2800,0.0
53.3000,3.0
53.3200,1.0
53.3400,0.0
53.3600,0.0
53.3800,0.0
53.4000,2.0
53.4200,1.0
53.4400,0.0
53.4600,0.0
53.4800,1.0
53.5000,2.0
53.5200,1.0
53.5400,2.0
53.5600,0.0
53.5800,3.0
53.6000,0.0
53.6200,1.0
53.6400,2.0
53.6600,1.0
53.6800,1.0
53.7000,0.0
53.7200,1.0
53.7400,1.0
53.7600,3.0
53.7800,1.0
53.8000,0.0
53.8200,0.0
53.8400,1.0
53.8600,1.0
53.8800,1.0
53.9000,6.0
53.9200,1.0
53.9400,1.0
53.9600,1.0
53.9800,1.0
54.0000,1.0
54.0200,0.0
54.0400,3.0
54.0600,1.0
54.0800,5.0
54.1000,0.0
54.1200,1.0
54.1400,1.0
54.1600,0.0
54.1800,0.0
54.2000,1.0
54.2200,0.0
54.2400,0.0
54.2600,3.0
54.2800,1.0
54.3000,0.0
54.3200,2.0
54.3400,2.0
54.3600,3.0
54.3800,1.0
54.4000,0.0
54.4200,1.0
54.4400,1.0
54.4600,0.0
54.4800,1.0
54.5000,1.0
54.5200,4.0
54.5400,1.0
54.5600,2.0
54.5800,3.0
54.6000,1.0
54.6200,1.0
54.6400,6.0
54.6600,2.0
54.6800,1.0
54.7000,0.0
54.7200,2.0
54.7400,1.0
54.7600,2.0
54.7800,0.0
54.8000,1.0
54.8200,1.0
54.8400,3.0
54.8600,0.0
54.8800,2.0
54.9000,1.0
54.9200,1.0
54.9400,2.0
54.9600,2.0
54.9800,0.0
55.0000,2.0
55.0200,1.0
55.0400,1.0
55.0600,2.0
55.0800,0.0
55.1000,0.0
55.1200,0.0
55.1400,0.0
55.1600,0.0
55.1800,1.0
55.2000,0.0
55.2200,0.0
55.2400,1.0
55.2600,2.0
55.2800,0.0
55.3000,3.0
55.3200,1.0
55.3400,1.0
55.3600,0.0
55.3800,1.0
55.4000,0.0
55.4200,0.0
55.4400,0.0
55.4600,1.0
55.4800,1.0
55.5000,0.0
55.5200,0.0
55.5400,0.0
55.5600,2.0
55.5800,1.0
55.6000,2.0
55.6200,1.0
55.6400,1.0
55.6600,2.0
55.6800,1.0
55.7000,1.0
55.7200,2.0
55.7400,2.0
55.7600,0.0
55.7800,0.0
55.8000,2.0
55.8200,1.0
55.8400,0.0
55.8600,0.0
55.8800,2.0
55.9000,1.0
55.9200,1.0
55.9400,2.0
55.9600,0.0
55.9800,0.0
56.0000,1.0
56.0200,1.0
56.0400,1.0
56.0600,1.0
56.0800,1.0
56.1000,2.0
56.1200,1.0
56.1400,1.0
56.1600,2.0
56.1800,6.0
56.2000,1.0
56.2200,0.0
56.2400,1.0
56.2600,1.0
56.2800,1.0
56.3000,0.0
56.3200,0.0
56.3400,1.0
56.3600,0.0
56.3800,2.0
56.4000,0.0
56.4200,0.0
56.4400,1.0
56.4600,2.0
56.4800,1.0
56.5000,1.0
56.5200,1.0
56.5400,1.0
56.5600,4.0
56.5800,0.0
56.6000,1.0
56.6200,1.0
56.6400,0.0
56.6600,2.0
56.6800,1.0
56.7000,0.0
56.7200,3.0
56.7400,2.0
56.7600,1.0
56.7800,1.0
56.8000,1.0
56.8200,1.0
56.8400,3.0
56.8600,0.0
56.8800,1.0
56.9000,0.0
56.9200,1.0
56.9400,2.0
56.9600,1.0
56.9800,2.0
57.0000,1.0
57.0200,2.0
57.0400,0.0
57.0600,0.0
57.0800,1.0
57.1000,1.0
57.1200,0.0
57.1400,0.0
57.1600,2.0
57.1800,0.0
57.2000,1.0
57.2200,1.0
57.2400,1.0
57.2600,2.0
57.2800,0.0
57.3000,0.0
57.3200,0.0
57.3400,2.0
57.3600,0.0
57.3800,0.0
57.4000,0.0
57.4200,0.0
57.4400,1.0
57.4600,0.0
57.4800,1.0
57.5000,1.0
57.5200,1.0
57.5400,1.0
57.5600,2.0
57.5800,0.0
57.6000,1.0
57.6200,1.0
57.6400,0.0
57.6600,2.0
57.6800,1.0
57.7000,1.0
57.7200,1.0
57.7400,1.0
57.7600,0.0
57.7800,2.0
57.8000,0.0
57.8200,0.0
57.8400,1.0
57.8600,1.0
57.8800,0.0
57.9000,1.0
57.9200,1.0
57.9400,0.0
57.9600,0.0
57.9800,4.0
58.0000,2.0
58.0200,0.0
58.0400,2.0
58.0600,2.0
58.0800,0.0
58.1000,0.0
58.1200,0.0
58.1400,1.0
58.1600,1.0
58.1800,1.0
58.2000,1.0
58.2200,3.0
58.2400,0.0
58.2600,1.0
58.2800,0.0
58.3000,2.0
58.3200,1.0
58.3400,1.0
58.3600,2.0
58.3800,0.0
58.4000,0.0
58.4200,0.0
58.4400,1.0
58.4600,2.0
58.4800,1.0
58.5000,1.0
58.5200,1.0
58.5400,2.0
58.5600,0.0
58.5800,2.0
58.6000,1.0
58.6200,0.0
58.6400,0.0
58.6600,0.0
58.6800,2.0
58.7000,0.0
58.7200,0.0
58.7400,3.0
58.7600,0.0
58.7800,3.0
58.8000,1.0
58.8200,0.0
58.8400,4.0
58.8600,0.0
58.8800,2.0
58.9000,3.0
58.9200,2.0
58.9400,3.0
58.9600,5.0
58.9800,1.0
59.0000,2.0
59.0200,0.0
59.0400,1.0
59.0600,3.0
59.0800,1.0
59.1000,1.0
59.1200,0.0
59.1400,0.0
59.1600,0.0
59.1800,2.0
59.2000,2.0
59.2200,0.0
59.2400,2.0
59.2600,0.0
59.2800,2.0
59.3000,2.0
59.3200,2.0
59.3400,2.0
59.3600,2.0
59.3800,2.0
59.4000,1.0
59.4200,0.0
59.4400,1.0
59.4600,2.0
59.4800,2.0
59.5000,3.0
59.5200,2.0
59.5400,3.0
59.5600,0.0
59.5800,5.0
59.6000,2.0
59.6200,2.0
59.6400,1.0
59.6600,2.0
59.6800,0.0
59.7000,1.0
59.7200,3.0
59.7400,2.0
59.7600,3.0
59.7800,0.0
59.8000,3.0
59.8200,0.0
59.8400,0.0
59.8600,3.0
59.8800,3.0
59.9000,1.0
59.9200,1.0
59.9400,1.0
59.9600,1.0
59.9800,2.0
60.0000,1.0
60.0200,0.0
60.0400,1.0
60.0600,0.0
60.0800,3.0
60.1000,0.0
60.1200,0.0
60.1400,0.0
60.1600,2.0
60.1800,0.0
60.2000,1.0
60.2200,2.0
60.2400,0.0
60.2600,1.0
60.2800,0.0
60.3000,2.0
60.3200,2.0
60.3400,0.0
60.3600,0.0
60.3800,3.0
60.4000,0.0
60.4200,1.0
60.4400,1.0
60.4600,1.0
60.4800,0.0
60.5000,0.0
60.5200,0.0
60.5400,0.0
60.5600,0.0
60.5800,1.0
60.6000,1.0
60.6200,1.0
60.6400,4.0
60.6600,3.0
60.6800,1.0
60.7000,1.0
60.7200,1.0
60.7400,1.0
60.7600,0.0
60.7800,0.0
60.8000,0.0
60.8200,1.0
60.8400,0.0
60.8600,0.0
60.8800,1.0
60.9000,1.0
60.9200,1.0
60.9400,1.0
60.9600,1.0
60.9800,1.0
61.0000,2.0
61.0200,4.0
61.0400,1.0
61.0600,1.0
61.0800,1.0
61.1000,2.0
61.1200,1.0
61.1400,3.0
61.1600,1.0
61.1800,0.0
61.2000,1.0
61.2200,2.0
61.2400,0.0
61.2600,2.0
61.2800,1.0
61.3000,2.0
61.3200,0.0
61.3400,0.0
61.3600,1.0
61.3800,0.0
61.4000,4.0
61.4200,0.0
61.4400,2.0
61.4600,2.0
61.4800,2.0
61.5000,2.0
61.5200,3.0
61.5400,2.0
61.5600,0.0
61.5800,1.0
61.6000,2.0
61.6200,1.0
61.6400,2.0
61.6600,1.0
61.6800,2.0
61.7000,3.0
61.7200,0.0
61.7400,3.0
61.7600,0.0
61.7800,0.0
61.8000,0.0
61.8200,0.0
61.8400,0.0
61.8600,0.0
61.8800,0.0
61.9000,0.0
61.9200,1.0
61.9400,1.0
61.9600,0.0
61.9800,3.0
62.0000,2.0
62.0200,0.0
62.0400,0.0
62.0600,0.0
62.0800,0.0
62.1000,0.0
62.1200,0.0
62.1400,0.0
62.1600,0.0
62.1800,0.0
62.2000,0.0
62.2200,1.0
62.2400,2.0
62.2600,1.0
62.2800,3.0
62.3000,2.0
62.3200,1.0
62.3400,2.0
62.3600,1.0
62.3800,2.0
62.4000,2.0
62.4200,2.0
62.4400,0.0
62.4600,1.0
62.4800,0.0
62.5000,0.0
62.5200,0.0
62.5400,1.0
62.5600,1.0
62.5800,1.0
62.6000,1.0
62.6200,2.0
62.6400,0.0
62.6600,0.0
62.6800,1.0
62.7000,1.0
62.7200,2.0
62.7400,1.0
62.7600,2.0
62.7800,1.0
62.8000,3.0
62.8200,2.0
62.8400,3.0
62.8600,0.0
62.8800,0.0
62.9000,2.0
62.9200,1.0
62.9400,1.0
62.9600,3.0
62.9800,1.0
63.0000,2.0
63.0200,3.0
63.0400,1.0
63.0600,0.0
63.0800,0.0
63.1000,0.0
63.1200,0.0
63.1400,0.0
63.1600,4.0
63.1800,0.0
63.2000,1.0
63.2200,0.0
63.2400,1.0
63.2600,1.0
63.2800,2.0
63.3000,2.0
63.3200,0.0
63.3400,0.0
63.3600,1.0
63.3800,1.0
63.4000,0.0
63.4200,0.0
63.4400,3.0
63.4600,2.0
63.4800,0.0
63.5000,0.0
63.5200,0.0
63.5400,1.0
63.5600,0.0
63.5800,1.0
63.6000,2.0
63.6200,0.0
63.6400,0.0
63.6600,2.0
63.6800,2.0
63.7000,0.0
63.7200,2.0
63.7400,1.0
63.7600,1.0
63.7800,1.0
63.8000,2.0
63.8200,1.0
63.8400,3.0
63.8600,0.0
63.8800,2.0
63.9000,0.0
63.9200,2.0
63.9400,0.0
63.9600,0.0
63.9800,1.0
64.0000,1.0
64.0200,0.0
64.0400,1.0
64.0600,1.0
64.0800,0.0
64.1000,0.0
64.1200,1.0
64.1400,1.0
64.1600,2.0
64.1800,3.0
64.2000,0.0
64.2200,2.0
64.2400,1.0
64.2600,1.0
64.2800,2.0
64.3000,3.0
64.3200,0.0
64.3400,1.0
64.3600,1.0
64.3800,0.0
64.4000,1.0
64.4200,1.0
64.4400,1.0
64.4600,2.0
64.4800,0.0
64.5000,0.0
64.5200,3.0
64.5400,1.0
64.5600,2.0
64.5800,3.0
64.6000,3.0
64.6200,4.0
64.6400,5.0
64.6600,5.0
64.6800,4.0
64.7000,12.0
64.7200,3.0
64.7400,2.0
64.7600,5.0
64.7800,3.0
64.8000,2.0
64.8200,1.0
64.8400,3.0
64.8600,4.0
64.8800,0.0
64.9000,2.0
64.9200,0.0
64.9400,2.0
64.9600,0.0
64.9800,2.0
65.0000,0.0
65.0200,1.0
65.0400,0.0
65.0600,2.0
65.0800,1.0
65.1000,1.0
65.1200,2.0
65.1400,2.0
65.1600,1.0
65.1800,0.0
65.2000,0.0
65.2200,2.0
65.2400,3.0
65.2600,0.0
65.2800,0.0
65.3000,2.0
65.3200,3.0
65.3400,2.0
65.3600,2.0
65.3800,2.0
65.4000,0.0
65.4200,3.0
65.4400,2.0
65.4600,1.0
65.4800,2.0
65.5000,2.0
65.5200,1.0
65.5400,1.0
65.5600,1.0
65.5800,0.0
65.6000,0.0
65.6200,0.0
65.6400,0.0
65.6600,3.0
65.6800,0.0
65.7000,2.0
65.7200,0.0
65.7400,0.0
65.7600,0.0
65.7800,1.0
65.8000,0.0
65.8200,0.0
65.8400,1.0
65.8600,1.0
65.8800,0.0
65.9000,0.0
65.9200,1.0
65.9400,1.0
65.9600,1.0
65.9800,2.0
66.0000,0.0
66.0200,0.0
66.0400,1.0
66.0600,0.0
66.0800,1.0
66.1000,0.0
66.1200,1.0
66.1400,1.0
66.1600,1.0
66.1800,1.0
66.2000,1.0
66.2200,1.0
66.2400,1.0
66.2600,0.0
66.2800,1.0
66.3000,2.0
66.3200,1.0
66.3400,1.0
66.3600,3.0
66.3800,1.0
66.4000,2.0
66.4200,1.0
66.4400,0.0
66.4600,0.0
66.4800,1.0
66.5000,0.0
66.5200,2.0
66.5400,2.0
66.5600,2.0
66.5800,0.0
66.6000,3.0
66.6200,1.0
66.6400,0.0
66.6600,0.0
66.6800,1.0
66.7000,4.0
66.7200,0.0
66.7400,1.0
66.7600,2.0
66.7800,2.0
66.8000,1.0
66.8200,1.0
66.8400,4.0
66.8600,0.0
66.8800,1.0
66.9000,2.0
66.9200,1.0
66.9400,0.0
66.9600,5.0
66.9800,1.0
67.0000,0.0
67.0200,0.0
67.0400,2.0
67.0600,0.0
67.0800,2.0
67.1000,2.0
67.1200,1.0
67.1400,0.0
67.1600,0.0
67.1800,3.0
67.2000,1.0
67.2200,0.0
67.2400,0.0
67.2600,2.0
67.2800,1.0
67.3000,1.0
67.3200,3.0
67.3400,1.0
67.3600,1.0
67.3800,1.0
67.4000,1.0
67.4200,1.0
67.4400,0.0
67.4600,0.0
67.4800,4.0
67.5000,1.0
67.5200,0.0
67.5400,2.0
67.5600,0.0
67.5800,3.0
67.6000,1.0
67.6200,2.0
67.6400,0.0
67.6600,3.0
67.6800,0.0
67.7000,1.0
67.7200,0.0
67.7400,0.0
67.7600,3.0
67.7800,2.0
67.8000,1.0
67.8200,2.0
67.8400,0.0
67.8600,2.0
67.8800,0.0
67.9000,0.0
67.9200,1.0
67.9400,2.0
67.9600,3.0
67.9800,0.0
68.0000,2.0
68.0200,0.0
68.0400,1.0
68.0600,2.0
68.0800,3.0
68.1000,1.0
68.1200,2.0
68.1400,1.0
68.1600,1.0
68.1800,0.0
68.2000,1.0
68.2200,1.0
68.2400,1.0
68.2600,2.0
68.2800,1.0
68.3000,1.0
68.3200,4.0
68.3400,3.0
68.3600,3.0
68.3800,0.0
68.4000,1.0
68.4200,2.0
68.4400,3.0
68.4600,2.0
68.4800,0.0
68.5000,2.0
68.5200,0.0
68.5400,2.0
68.5600,0.0
68.5800,1.0
68.6000,2.0
68.6200,1.0
68.6400,1.0
68.6600,3.0
68.6800,3.0
68.7000,1.0
68.7200,1.0
68.7400,0.0
68.7600,2.0
68.7800,1.0
68.8000,2.0
68.8200,2.0
68.8400,2.0
68.8600,0.0
68.8800,0.0
68.9000,1.0
68.9200,3.0
68.9400,5.0
68.9600,1.0
68.9800,2.0
69.0000,1.0
69.0200,4.0
69.0400,2.0
69.0600,6.0
69.0800,4.0
69.1000,6.0
69.1200,2.0
69.1400,5.0
69.1600,7.0
69.1800,9.0
69.2000,6.0
69.2200,6.0
69.2400,1.0
69.2600,0.0
69.2800,4.0
69.3000,4.0
69.3200,5.0
69.3400,1.0
69.3600,3.0
69.3800,3.0
69.4000,4.0
69.4200,3.0
69.4400,2.0
69.4600,2.0
69.4800,2.0
69.5000,2.0
69.5200,1.0
69.5400,0.0
69.5600,0.0
69.5800,0.0
69.6000,6.0
69.6200,3.0
69.6400,4.0
69.6600,1.0
69.6800,5.0
69.7000,1.0
69.7200,2.0
69.7400,5.0
69.7600,5.0
69.7800,2.0
69.8000,5.0
69.8200,6.0
69.8400,5.0
69.8600,4.0
69.8800,2.0
69.9000,2.0
69.9200,1.0
69.9400,1.0
69.9600,1.0
69.9800,2.0
70.0000,2.0
70.0200,7.0
70.0400,1.0
70.0600,1.0
70.0800,3.0
70.1000,4.0
70.1200,5.0
70.1400,1.0
70.1600,2.0
70.1800,5.0
70.2000,2.0
70.2200,2.0
70.2400,3.0
70.2600,5.0
70.2800,2.0
70.3000,1.0
70.3200,3.0
70.3400,4.0
70.3600,2.0
70.3800,2.0
70.4000,3.0
70.4200,4.0
70.4400,5.0
70.4600,6.0
70.4800,3.0
70.5000,3.0
70.5200,3.0
70.5400,8.0
70.5600,6.0
70.5800,5.0
70.6000,5.0
70.6200,5.0
70.6400,3.0
70.6600,5.0
70.6800,4.0
70.7000,3.0
70.7200,5.0
70.7400,5.0
70.7600,8.0
70.7800,9.0
70.8000,4.0
70.8200,6.0
70.8400,5.0
70.8600,7.0
70.8800,11.0
70.9000,8.0
70.9200,6.0
70.9400,10.0
70.9600,6.0
70.9800,8.0
71.0000,5.0
71.0200,5.0
71.0400,3.0
71.0600,5.0
71.0800,13.0
71.1000,10.0
71.1200,14.0
71.1400,7.0
71.1600,10.0
71.1800,12.0
71.2000,13.0
71.2200,20.0
71.2400,12.0
71.2600,10.0
71.2800,5.0
71.3000,7.0
71.3200,9.0
71.3400,14.0
71.3600,13.0
71.3800,12.0
71.4000,17.0
71.4200,14.0
71.4400,16.0
71.4600,15.0
71.4800,15.0
71.5000,15.0
71.5200,20.0
71.5400,20.0
71.5600,21.0
71.5800,29.0
71.6000,20.0
71.6200,17.0
71.6400,29.0
71.6600,32.0
71.6800,26.0
71.7000,15.0
71.7200,22.0
71.7400,20.0
71.7600,25.0
71.7800,28.0
71.8000,24.0
71.8200,37.0
71.8400,28.0
71.8600,47.0
71.8800,43.0
71.9000,36.0
71.9200,40.0
71.9400,28.0
71.9600,45.0
71.9800,48.0
72.0000,48.0
72.0200,70.0
72.0400,48.0
72.0600,71.0
72.0800,78.0
72.1000,91.0
72.1200,101.0
72.1400,116.0
72.1600,128.0
72.1800,146.0
72.2000,166.0
72.2200,198.0
72.2400,163.0
72.2600,232.0
72.2800,272.0
72.3000,256.0
72.3200,325.0
72.3400,338.0
72.3600,412.0
72.3800,455.0
72.4000,570.0
72.4200,683.0
72.4400,924.0
72.4600,1053.0
72.4800,1428.0
72.5000,1836.0
72.5200,2416.0
72.5400,3024.0
72.5600,3548.0
72.5800,4128.0
72.6000,4396.0
72.6200,4421.0
72.6400,3911.0
72.6600,3340.0
72.6800,2719.0
72.7000,2232.0
72.7200,1977.0
72.7400,1876.0
72.7600,2044.0
72.7800,2171.0
72.8000,2293.0
72.8200,2218.0
72.8400,2039.0
72.8600,1652.0
72.8800,1233.0
72.9000,915.0
72.9200,643.0
72.9400,425.0
72.9600,325.0
72.9800,229.0
73.0000,193.0
73.0200,138.0
73.0400,95.0
73.0600,107.0
73.0800,85.0
73.1000,83.0
73.1200,61.0
73.1400,62.0
73.1600,58.0
73.1800,49.0
73.2000,59.0
73.2200,41.0
73.2400,42.0
73.2600,44.0
73.2800,37.0
73.3000,44.0
73.3200,28.0
73.3400,32.0
73.3600,30.0
73.3800,31.0
73.4000,24.0
73.4200,19.0
73.4400,21.0
73.4600,31.0
73.4800,32.0
73.5000,21.0
73.5200,24.0
73.5400,24.0
73.5600,24.0
73.5800,23.0
73.6000,22.0
73.6200,25.0
73.6400,20.0
73.6600,24.0
73.6800,8.0
73.7000,24.0
73.7200,16.0
73.7400,10.0
73.7600,14.0
73.7800,14.0
73.8000,13.0
73.8200,14.0
73.8400,14.0
73.8600,20.0
73.8800,14.0
73.9000,20.0
73.9200,11.0
73.9400,12.0
73.9600,9.0
73.9800,15.0
74.0000,10.0
74.0200,12.0
74.0400,15.0
74.0600,10.0
74.0800,12.0
74.1000,6.0
74.1200,8.0
74.1400,13.0
74.1600,11.0
74.1800,8.0
74.2000,13.0
74.2200,8.0
74.2400,19.0
74.2600,7.0
74.2800,12.0
74.3000,9.0
74.3200,5.0
74.3400,6.0
74.3600,4.0
74.3800,8.0
74.4000,6.0
74.4200,5.0
74.4400,6.0
74.4600,7.0
74.4800,8.0
74.5000,7.0
74.5200,9.0
74.5400,6.0
74.5600,4.0
74.5800,6.0
74.6000,8.0
74.6200,5.0
74.6400,7.0
74.6600,5.0
74.6800,5.0
74.7000,8.0
74.7200,10.0
74.7400,7.0
74.7600,3.0
74.7800,6.0
74.8000,5.0
74.8200,2.0
74.8400,9.0
74.8600,10.0
74.8800,4.0
74.9000,4.0
74.9200,2.0
74.9400,4.0
74.9600,3.0
74.9800,3.0
75.0000,10.0
75.0200,4.0
75.0400,5.0
75.0600,7.0
75.0800,3.0
75.1000,4.0
75.1200,2.0
75.1400,3.0
75.1600,1.0
75.1800,2.0
75.2000,3.0
75.2200,6.0
75.2400,2.0
75.2600,7.0
75.2800,4.0
75.3000,0.0
75.3200,4.0
75.3400,3.0
75.3600,4.0
75.3800,3.0
75.4000,2.0
75.4200,3.0
75.4400,5.0
75.4600,3.0
75.4800,1.0
75.5000,2.0
75.5200,4.0
75.5400,3.0
75.5600,1.0
75.5800,2.0
75.6000,3.0
75.6200,2.0
75.6400,3.0
75.6600,4.0
75.6800,1.0
75.7000,5.0
75.7200,3.0
75.7400,4.0
75.7600,2.0
75.7800,2.0
75.8000,5.0
75.8200,3.0
75.8400,3.0
75.8600,2.0
75.8800,2.0
75.9000,2.0
75.9200,0.0
75.9400,2.0
75.9600,1.0
75.9800,3.0
76.0000,3.0
76.0200,2.0
76.0400,4.0
76.0600,2.0
76.0800,2.0
76.1000,4.0
76.1200,1.0
76.1400,4.0
76.1600,2.0
76.1800,1.0
76.2000,4.0
76.2200,1.0
76.2400,0.0
76.2600,2.0
76.2800,2.0
76.3000,4.0
76.3200,1.0
76.3400,1.0
76.3600,4.0
76.3800,0.0
76.4000,0.0
76.4200,2.0
76.4400,1.0
76.4600,3.0
76.4800,3.0
76.5000,3.0
76.5200,2.0
76.5400,2.0
76.5600,2.0
76.5800,3.0
76.6000,3.0
76.6200,5.0
76.6400,3.0
76.6600,3.0
76.6800,6.0
76.7000,5.0
76.7200,5.0
76.7400,3.0
76.7600,4.0
76.7800,6.0
76.8000,7.0
76.8200,1.0
76.8400,4.0
76.8600,4.0
76.8800,4.0
76.9000,2.0
76.9200,0.0
76.9400,1.0
76.9600,2.0
76.9800,2.0
77.0000,2.0
77.0200,1.0
77.0400,2.0
77.0600,2.0
77.0800,5.0
77.1000,1.0
77.1200,2.0
77.1400,3.0
77.1600,1.0
77.1800,3.0
77.2000,2.0
77.2200,0.0
77.2400,2.0
77.2600,3.0
77.2800,2.0
77.3000,4.0
77.3200,2.0
77.3400,2.0
77.3600,2.0
77.3800,3.0
77.4000,4.0
77.4200,5.0
77.4400,2.0
77.4600,0.0
77.4800,1.0
77.5000,2.0
77.5200,0.0
77.5400,1.0
77.5600,2.0
77.5800,2.0
77.6000,2.0
77.6200,6.0
77.6400,2.0
77.6600,1.0
77.6800,3.0
77.7000,4.0
77.7200,3.0
77.7400,3.0
77.7600,1.0
77.7800,1.0
77.8000,4.0
77.8200,0.0
77.8400,0.0
77.8600,3.0
77.8800,2.0
77.9000,2.0
77.9200,1.0
77.9400,5.0
77.9600,4.0
77.9800,2.0
78.0000,1.0
78.0200,1.0
78.0400,2.0
78.0600,2.0
78.0800,3.0
78.1000,2.0
78.1200,1.0
78.1400,4.0
78.1600,0.0
78.1800,2.0
78.2000,1.0
78.2200,1.0
78.2400,0.0
78.2600,3.0
78.2800,0.0
78.3000,3.0
78.3200,0.0
78.3400,2.0
78.3600,4.0
78.3800,2.0
78.4000,3.0
78.4200,0.0
78.4400,2.0
78.4600,4.0
78.4800,3.0
78.5000,4.0
78.5200,1.0
78.5400,3.0
78.5600,2.0
78.5800,1.0
78.6000,1.0
78.6200,1.0
78.6400,4.0
78.6600,4.0
78.6800,2.0
78.7000,5.0
78.7200,1.0
78.7400,0.0
78.7600,5.0
78.7800,0.0
78.8000,4.0
78.8200,2.0
78.8400,2.0
78.8600,6.0
78.8800,5.0
78.9000,4.0
78.9200,1.0
78.9400,2.0
78.9600,2.0
78.9800,4.0
79.0000,7.0
79.0200,5.0
79.0400,5.0
79.0600,7.0
79.0800,8.0
79.1000,5.0
79.1200,2.0
79.1400,6.0
79.1600,1.0
79.1800,4.0
79.2000,4.0
79.2200,4.0
79.2400,1.0
79.2600,8.0
79.2800,2.0
79.3000,8.0
79.3200,10.0
79.3400,3.0
79.3600,4.0
79.3800,7.0
79.4000,8.0
79.4200,1.0
79.4400,6.0
79.4600,6.0
79.4800,4.0
79.5000,10.0
79.5200,6.0
79.5400,5.0
79.5600,7.0
79.5800,3.0
79.6000,6.0
79.6200,5.0
79.6400,6.0
79.6600,9.0
79.6800,11.0
79.7000,5.0
79.7200,4.0
79.7400,9.0
79.7600,11.0
79.7800,11.0
79.8000,5.0
79.8200,15.0
79.8400,14.0
79.8600,12.0
79.8800,9.0
79.9000,8.0
79.9200,15.0
79.9400,7.0
79.9600,15.0
79.9800,19.0
80.0000,14.0
80.0200,13.0
80.0400,10.0
80.0600,20.0
80.0800,17.0
80.1000,10.0
80.1200,24.0
80.1400,27.0
80.1600,26.0
80.1800,29.0
80.2000,31.0
80.2200,31.0
80.2400,43.0
80.2600,44.0
80.2800,37.0
80.3000,45.0
80.3200,54.0
80.3400,52.0
80.3600,46.0
80.3800,54.0
80.4000,67.0
80.4200,86.0
80.4400,156.0
80.4600,186.0
80.4800,219.0
80.5000,305.0
80.5200,311.0
80.5400,379.0
80.5600,431.0
80.5800,614.0
80.6000,881.0
80.6200,1643.0
80.6400,2719.0
80.6600,3724.0
80.6800,4030.0
80.7000,3574.0
80.7200,2420.0
80.7400,1445.0
80.7600,818.0
80.7800,516.0
80.8000,441.0
80.8200,446.0
80.8400,576.0
80.8600,1000.0
80.8800,1545.0
80.9000,2079.0
80.9200,2445.0
80.9400,2208.0
80.9600,1672.0
80.9800,957.0
81.0000,596.0
81.0200,340.0
81.0400,210.0
81.0600,155.0
81.0800,135.0
81.1000,118.0
81.1200,101.0
81.1400,92.0
81.1600,65.0
81.1800,65.0
81.2000,62.0
81.2200,42.0
81.2400,49.0
81.2600,54.0
81.2800,41.0
81.3000,35.0
81.3200,41.0
81.3400,36.0
81.3600,38.0
81.3800,28.0
81.4000,33.0
81.4200,23.0
81.4400,43.0
81.4600,46.0
81.4800,32.0
81.5000,28.0
81.5200,19.0
81.5400,25.0
81.5600,28.0
81.5800,27.0
81.6000,25.0
81.6200,21.0
81.6400,23.0
81.6600,24.0
81.6800,13.0
81.7000,17.0
81.7200,27.0
81.7400,20.0
81.7600,16.0
81.7800,21.0
81.8000,14.0
81.8200,20.0
81.8400,14.0
81.8600,17.0
81.8800,18.0
81.9000,17.0
81.9200,25.0
81.9400,20.0
81.9600,17.0
81.9800,11.0
82.0000,21.0
82.0200,16.0
82.0400,21.0
82.0600,19.0
82.0800,17.0
82.1000,21.0
82.1200,19.0
82.1400,16.0
82.1600,26.0
82.1800,19.0
82.2000,14.0
82.2200,12.0
82.2400,16.0
82.2600,17.0
82.2800,20.0
82.3000,13.0
82.3200,13.0
82.3400,16.0
82.3600,21.0
82.3800,16.0
82.4000,13.0
82.4200,18.0
82.4400,10.0
82.4600,18.0
82.4800,19.0
82.5000,17.0
82.5200,16.0
82.5400,12.0
82.5600,9.0
82.5800,16.0
82.6000,16.0
82.6200,13.0
82.6400,14.0
82.6600,14.0
82.6800,16.0
82.7000,8.0
82.7200,10.0
82.7400,6.0
82.7600,8.0
82.7800,11.0
82.8000,8.0
82.8200,6.0
82.8400,10.0
82.8600,8.0
82.8800,13.0
82.9000,7.0
82.9200,10.0
82.9400,12.0
82.9600,11.0
82.9800,12.0
83.0000,19.0
83.0200,18.0
83.0400,7.0
83.0600,6.0
83.0800,11.0
83.1000,11.0
83.1200,10.0
83.1400,8.0
83.1600,10.0
83.1800,7.0
83.2000,9.0
83.2200,11.0
83.2400,8.0
83.2600,6.0
83.2800,5.0
83.3000,7.0
83.3200,11.0
83.3400,10.0
83.3600,8.0
83.3800,9.0
83.4000,5.0
83.4200,5.0
83.4400,7.0
83.4600,6.0
83.4800,4.0
83.5000,9.0
83.5200,7.0
83.5400,6.0
83.5600,6.0
83.5800,8.0
83.6000,8.0
83.6200,3.0
83.6400,7.0
83.6600,9.0
83.6800,2.0
83.7000,6.0
83.7200,6.0
83.7400,10.0
83.7600,6.0
83.7800,3.0
83.8000,6.0
83.8200,9.0
83.8400,2.0
83.8600,8.0
83.8800,4.0
83.9000,4.0
83.9200,3.0
83.9400,3.0
83.9600,4.0
83.9800,3.0
84.0000,5.0
84.0200,4.0
84.0400,4.0
84.0600,7.0
84.0800,1.0
84.1000,3.0
84.1200,6.0
84.1400,4.0
84.1600,3.0
84.1800,2.0
84.2000,2.0
84.2200,1.0
84.2400,4.0
84.2600,2.0
84.2800,5.0
84.3000,3.0
84.3200,4.0
84.3400,4.0
84.3600,3.0
84.3800,2.0
84.4000,2.0
84.4200,2.0
84.4400,0.0
84.4600,4.0
84.4800,0.0
84.5000,4.0
84.5200,1.0
84.5400,0.0
84.5600,1.0
84.5800,0.0
84.6000,4.0
84.6200,1.0
84.6400,1.0
84.6600,1.0
84.6800,2.0
84.7000,5.0
84.7200,2.0
84.7400,1.0
84.7600,0.0
84.7800,4.0
84.8000,2.0
84.8200,2.0
84.8400,2.0
84.8600,0.0
84.8800,1.0
84.9000,0.0
84.9200,0.0
84.9400,3.0
84.9600,4.0
84.9800,1.0
85.0000,4.0
85.0200,0.0
85.0400,2.0
85.0600,7.0
85.0800,4.0
85.1000,1.0
85.1200,4.0
85.1400,2.0
85.1600,3.0
85.1800,2.0
85.2000,2.0
85.2200,1.0
85.2400,3.0
85.2600,2.0
85.2800,1.0
85.3000,0.0
85.3200,0.0
85.3400,3.0
85.3600,1.0
85.3800,4.0
85.4000,0.0
85.4200,3.0
85.4400,2.0
85.4600,2.0
85.4800,1.0
85.5000,0.0
85.5200,0.0
85.5400,1.0
85.5600,0.0
85.5800,1.0
85.6000,3.0
85.6200,1.0
85.6400,4.0
85.6600,1.0
85.6800,1.0
85.7000,1.0
85.7200,7.0
85.7400,1.0
85.7600,3.0
85.7800,2.0
85.8000,2.0
85.8200,2.0
85.8400,2.0
85.8600,0.0
85.8800,3.0
85.9000,0.0
85.9200,4.0
85.9400,0.0
85.9600,2.0
85.9800,2.0
86.0000,0.0
86.0200,0.0
86.0400,2.0
86.0600,2.0
86.0800,2.0
86.1000,1.0
86.1200,1.0
86.1400,1.0
86.1600,0.0
86.1800,2.0
86.2000,5.0
86.2200,2.0
86.2400,2.0
86.2600,3.0
86.2800,2.0
86.3000,1.0
86.3200,1.0
86.3400,0.0
86.3600,1.0
86.3800,1.0
86.4000,1.0
86.4200,2.0
86.4400,2.0
86.4600,0.0
86.4800,0.0
86.5000,1.0
86.5200,3.0
86.5400,4.0
86.5600,0.0
86.5800,0.0
86.6000,1.0
86.6200,0.0
86.6400,2.0
86.6600,1.0
86.6800,1.0
86.7000,0.0
86.7200,1.0
86.7400,2.0
86.7600,2.0
86.7800,1.0
86.8000,1.0
86.8200,2.0
86.8400,1.0
86.8600,1.0
86.8800,1.0
86.9000,0.0
86.9200,2.0
86.9400,1.0
86.9600,2.0
86.9800,0.0
87.0000,3.0
87.0200,1.0
87.0400,1.0
87.0600,1.0
87.0800,1.0
87.1000,0.0
87.1200,3.0
87.1400,0.0
87.1600,0.0
87.1800,1.0
87.2000,1.0
87.2200,1.0
87.2400,1.0
87.2600,2.0
87.2800,1.0
87.3000,2.0
87.3200,0.0
87.3400,2.0
87.3600,1.0
87.3800,1.0
87.4000,0.0
87.4200,4.0
87.4400,0.0
87.4600,1.0
87.4800,0.0
87.5000,2.0
87.5200,1.0
87.5400,1.0
87.5600,1.0
87.5800,0.0
87.6000,1.0
87.6200,0.0
87.6400,1.0
87.6600,0.0
87.6800,1.0
87.7000,2.0
87.7200,2.0
87.7400,1.0
87.7600,1.0
87.7800,1.0
87.8000,1.0
87.8200,2.0
87.8400,2.0
87.8600,0.0
87.8800,1.0
87.9000,0.0
87.9200,0.0
87.9400,1.0
87.9600,1.0
87.9800,0.0
88.0000,0.0
88.0200,2.0
88.0400,0.0
88.0600,0.0
88.0800,0.0
88.1000,0.0
88.1200,0.0
88.1400,2.0
88.1600,1.0
88.1800,4.0
88.2000,2.0
88.2200,1.0
88.2400,3.0
88.2600,2.0
88.2800,2.0
88.3000,0.0
88.3200,0.0
88.3400,0.0
88.3600,1.0
88.3800,0.0
88.4000,1.0
88.4200,0.0
88.4400,1.0
88.4600,1.0
88.4800,2.0
88.5000,2.0
88.5200,1.0
88.5400,0.0
88.5600,1.0
88.5800,1.0
88.6000,2.0
88.6200,0.0
88.6400,0.0
88.6600,1.0
88.6800,1.0
88.7000,2.0
88.7200,1.0
88.7400,2.0
88.7600,0.0
88.7800,2.0
88.8000,3.0
88.8200,0.0
88.8400,2.0
88.8600,0.0
88.8800,2.0
88.9000,1.0
88.9200,3.0
88.9400,2.0
88.9600,2.0
88.9800,2.0
89.0000,3.0
89.0200,1.0
89.0400,2.0
89.0600,1.0
89.0800,0.0
89.1000,0.0
89.1200,1.0
89.1400,0.0
89.1600,0.0
89.1800,1.0
89.2000,1.0
89.2200,5.0
89.2400,1.0
89.2600,0.0
89.2800,1.0
89.3000,3.0
89.3200,2.0
89.3400,3.0
89.3600,2.0
89.3800,2.0
89.4000,0.0
89.4200,3.0
89.4400,3.0
89.4600,3.0
89.4800,3.0
89.5000,1.0
89.5200,1.0
89.5400,1.0
89.5600,1.0
89.5800,1.0
89.6000,1.0
89.6200,3.0
89.6400,0.0
89.6600,0.0
89.6800,0.0
89.7000,1.0
89.7200,1.0
89.7400,1.0
89.7600,1.0
89.7800,4.0
89.8000,1.0
89.8200,3.0
89.8400,1.0
89.8600,0.0
89.8800,3.0
89.9000,0.0
89.9200,1.0
89.9400,0.0
89.9600,1.0
89.9800,0.0
90.0000,1.0
90.0200,0.0
90.0400,0.0
90.0600,2.0
90.0800,1.0
90.1000,1.0
90.1200,0.0
90.1400,1.0
90.1600,1.0
90.1800,1.0
90.2000,1.0
90.2200,0.0
90.2400,2.0
90.2600,1.0
90.2800,0.0
90.3000,1.0
90.3200,3.0
90.3400,0.0
90.3600,1.0
90.3800,0.0
90.4000,2.0
90.4200,2.0
90.4400,2.0
90.4600,2.0
90.4800,0.0
90.5000,2.0
90.5200,0.0
90.5400,4.0
90.5600,4.0
90.5800,1.0
90.6000,1.0
90.6200,0.0
90.6400,0.0
90.6600,2.0
90.6800,0.0
90.7000,1.0
90.7200,2.0
90.7400,1.0
90.7600,0.0
90.7800,1.0
90.8000,1.0
90.8200,2.0
90.8400,6.0
90.8600,2.0
90.8800,2.0
90.9000,1.0
90.9200,2.0
90.9400,2.0
90.9600,0.0
90.9800,1.0
91.0000,0.0
91.0200,1.0
91.0400,1.0
91.0600,0.0
91.0800,1.0
91.1000,0.0
91.1200,0.0
91.1400,0.0
91.1600,0.0
91.1800,0.0
91.2000,0.0
91.2200,0.0
91.2400,0.0
91.2600,1.0
91.2800,0.0
91.3000,2.0
91.3200,0.0
91.3400,2.0
91.3600,2.0
91.3800,0.0
91.4000,0.0
91.4200,1.0
91.4400,1.0
91.4600,1.0
91.4800,2.0
91.5000,2.0
91.5200,0.0
91.5400,1.0
91.5600,1.0
91.5800,1.0
91.6000,0.0
91.6200,1.0
91.6400,1.0
91.6600,0.0
91.6800,1.0
91.7000,0.0
91.7200,0.0
91.7400,1.0
91.7600,0.0
91.7800,2.0
91.8000,0.0
91.8200,1.0
91.8400,3.0
91.8600,1.0
91.8800,2.0
91.9000,1.0
91.9200,2.0
91.9400,1.0
91.9600,0.0
91.9800,2.0
92.0000,2.0
92.0200,0.0
92.0400,1.0
92.0600,2.0
92.0800,1.0
92.1000,2.0
92.1200,2.0
92.1400,0.0
92.1600,0.0
92.1800,0.0
92.2000,0.0
92.2200,1.0
92.2400,0.0
92.2600,1.0
92.2800,0.0
92.3000,0.0
92.3200,2.0
92.3400,1.0
92.3600,2.0
92.3800,0.0
92.4000,0.0
92.4200,1.0
92.4400,0.0
92.4600,0.0
92.4800,0.0
92.5000,2.0
92.5200,2.0
92.5400,0.0
92.5600,1.0
92.5800,1.0
92.6000,3.0
92.6200,3.0
92.6400,0.0
92.6600,1.0
92.6800,2.0
92.7000,0.0
92.7200,1.0
92.7400,4.0
92.7600,2.0
92.7800,0.0
92.8000,0.0
92.8200,2.0
92.8400,1.0
92.8600,0.0
92.8800,1.0
92.9000,2.0
92.9200,1.0
92.9400,2.0
92.9600,0.0
92.9800,4.0
93.0000,1.0
93.0200,1.0
93.0400,2.0
93.0600,0.0
93.0800,0.0
93.1000,3.0
93.1200,3.0
93.1400,0.0
93.1600,0.0
93.1800,3.0
93.2000,0.0
93.2200,1.0
93.2400,1.0
93.2600,1.0
93.2800,0.0
93.3000,2.0
93.3200,3.0
93.3400,1.0
93.3600,0.0
93.3800,1.0
93.4000,1.0
93.4200,1.0
93.4400,1.0
93.4600,1.0
93.4800,2.0
93.5000,3.0
93.5200,0.0
93.5400,1.0
93.5600,1.0
93.5800,0.0
93.6000,0.0
93.6200,0.0
93.6400,0.0
93.6600,3.0
93.6800,0.0
93.7000,1.0
93.7200,2.0
93.7400,0.0
93.7600,2.0
93.7800,0.0
93.8000,1.0
93.8200,0.0
93.8400,0.0
93.8600,0.0
93.8800,0.0
93.9000,0.0
93.9200,0.0
93.9400,1.0
93.9600,2.0
93.9800,2.0
94.0000,5.0
94.0200,2.0
94.0400,1.0
94.0600,0.0
94.0800,0.0
94.1000,0.0
94.1200,0.0
94.1400,1.0
94.1600,1.0
94.1800,3.0
94.2000,1.0
94.2200,2.0
94.2400,0.0
94.2600,1.0
94.2800,1.0
94.3000,0.0
94.3200,1.0
94.3400,2.0
94.3600,2.0
94.3800,2.0
94.4000,2.0
94.4200,1.0
94.4400,0.0
94.4600,0.0
94.4800,1.0
94.5000,2.0
94.5200,1.0
94.5400,0.0
94.5600,0.0
94.5800,1.0
94.6000,1.0
94.6200,0.0
94.6400,0.0
94.6600,0.0
94.6800,3.0
94.7000,0.0
94.7200,0.0
94.7400,1.0
94.7600,2.0
94.7800,0.0
94.8000,1.0
94.8200,1.0
94.8400,2.0
94.8600,0.0
94.8800,1.0
94.9000,0.0
94.9200,0.0
94.9400,1.0
94.9600,1.0
94.9800,1.0
95.0000,1.0
95.0200,0.0
95.0400,0.0
95.0600,1.0
95.0800,3.0
95.1000,1.0
95.1200,0.0
95.1400,3.0
95.1600,2.0
95.1800,1.0
95.2000,1.0
95.2200,1.0
95.2400,3.0
95.2600,1.0
95.2800,1.0
95.3000,0.0
95.3200,2.0
95.3400,1.0
95.3600,1.0
95.3800,1.0
95.4000,1.0
95.4200,1.0
95.4400,1.0
95.4600,0.0
95.4800,2.0
95.5000,0.0
95.5200,1.0
95.5400,1.0
95.5600,4.0
95.5800,1.0
95.6000,1.0
95.6200,1.0
95.6400,2.0
95.6600,1.0
95.6800,0.0
95.7000,3.0
95.7200,1.0
95.7400,1.0
95.7600,1.0
95.7800,2.0
95.8000,0.0
95.8200,3.0
95.8400,1.0
95.8600,1.0
95.8800,1.0
95.9000,0.0
95.9200,0.0
95.9400,0.0
95.9600,1.0
95.9800,0.0
96.0000,1.0
96.0200,1.0
96.0400,3.0
96.0600,0.0
96.0800,0.0
96.1000,5.0
96.1200,0.0
96.1400,2.0
96.1600,0.0
96.1800,0.0
96.2000,1.0
96.2200,2.0
96.2400,1.0
96.2600,1.0
96.2800,0.0
96.3000,0.0
96.3200,0.0
96.3400,4.0
96.3600,1.0
96.3800,1.0
96.4000,1.0
96.4200,2.0
96.4400,2.0
96.4600,1.0
96.4800,4.0
96.5000,1.0
96.5200,2.0
96.5400,3.0
96.5600,2.0
96.5800,0.0
96.6000,1.0
96.6200,1.0
96.6400,1.0
96.6600,1.0
96.6800,0.0
96.7000,0.0
96.7200,0.0
96.7400,4.0
96.7600,0.0
96.7800,2.0
96.8000,1.0
96.8200,0.0
96.8400,5.0
96.8600,2.0
96.8800,2.0
96.9000,0.0
96.9200,1.0
96.9400,1.0
96.9600,3.0
96.9800,1.0
97.0000,1.0
97.0200,1.0
97.0400,1.0
97.0600,0.0
97.0800,0.0
97.1000,1.0
97.1200,2.0
97.1400,0.0
97.1600,0.0
97.1800,0.0
97.2000,1.0
97.2200,2.0
97.2400,1.0
97.2600,0.0
97.2800,2.0
97.3000,1.0
97.3200,1.0
97.3400,4.0
97.3600,1.0
97.3800,1.0
97.4000,2.0
97.4200,1.0
97.4400,0.0
97.4600,1.0
97.4800,2.0
97.5000,2.0
97.5200,1.0
97.5400,0.0
97.5600,1.0
97.5800,2.0
97.6000,0.0
97.6200,0.0
97.6400,0.0
97.6600,0.0
97.6800,1.0
97.7000,0.0
97.7200,0.0
97.7400,2.0
97.7600,1.0
97.7800,0.0
97.8000,1.0
97.8200,1.0
97.8400,0.0
97.8600,3.0
97.8800,1.0
97.9000,0.0
97.9200,2.0
97.9400,0.0
97.9600,2.0
97.9800,2.0
98.0000,1.0
98.0200,1.0
98.0400,0.0
98.0600,0.0
98.0800,0.0
98.1000,1.0
98.1200,0.0
98.1400,1.0
98.1600,1.0
98.1800,1.0
98.2000,1.0
98.2200,1.0
98.2400,1.0
98.2600,3.0
98.2800,2.0
98.3000,1.0
98.3200,0.0
98.3400,1.0
98.3600,2.0
98.3800,0.0
98.4000,0.0
98.4200,2.0
98.4400,0.0
98.4600,3.0
98.4800,0.0
98.5000,1.0
98.5200,0.0
98.5400,0.0
98.5600,0.0
98.5800,0.0
98.6000,0.0
98.6200,0.0
98.6400,1.0
98.6600,0.0
98.6800,1.0
98.7000,1.0
98.7200,2.0
98.7400,0.0
98.7600,1.0
98.7800,1.0
98.8000,1.0
98.8200,0.0
98.8400,0.0
98.8600,1.0
98.8800,0.0
98.9000,1.0
98.9200,0.0
98.9400,0.0
98.9600,0.0
98.9800,1.0
99.0000,2.0
99.0200,0.0
99.0400,1.0
99.0600,1.0
99.0800,1.0
99.1000,0.0
99.1200,1.0
99.1400,4.0
99.1600,1.0
99.1800,1.0
99.2000,0.0
99.2200,1.0
99.2400,2.0
99.2600,2.0
99.2800,1.0
99.3000,1.0
99.3200,1.0
99.3400,1.0
99.3600,0.0
99.3800,1.0
99.4000,0.0
99.4200,1.0
99.4400,0.0
99.4600,1.0
99.4800,0.0
99.5000,0.0
99.5200,0.0
99.5400,2.0
99.5600,2.0
99.5800,0.0
99.6000,0.0
99.6200,0.0
99.6400,1.0
99.6600,2.0
99.6800,0.0
99.7000,0.0
99.7200,2.0
99.7400,1.0
99.7600,0.0
99.7800,2.0
99.8000,2.0
99.8200,1.0
99.8400,0.0
99.8600,1.0
99.8800,0.0
99.9000,0.0
99.9200,1.0
99.9400,1.0
99.9600,1.0
99.9800,2.0
100.0000,0.0
100.0200,1.0
100.0400,0.0
100.0600,1.0
100.0800,3.0
100.1000,1.0
100.1200,1.0
100.1400,2.0
100.1600,3.0
100.1800,1.0
100.2000,4.0
100.2200,1.0
100.2400,2.0
100.2600,0.0
100.2800,0.0
100.3000,0.0
100.3200,0.0
100.3400,0.0
100.3600,3.0
100.3800,3.0
100.4000,2.0
100.4200,0.0
100.4400,2.0
100.4600,2.0
100.4800,0.0
100.5000,2.0
100.5200,1.0
100.5400,1.0
100.5600,1.0
100.5800,1.0
100.6000,1.0
100.6200,0.0
100.6400,0.0
100.6600,1.0
100.6800,1.0
100.7000,0.0
100.7200,1.0
100.7400,1.0
100.7600,0.0
100.7800,0.0
100.8000,2.0
100.8200,0.0
100.8400,1.0
100.8600,3.0
100.8800,2.0
100.9000,0.0
100.9200,0.0
100.9400,3.0
100.9600,1.0
100.9800,0.0
101.0000,0.0
101.0200,0.0
101.0400,1.0
101.0600,1.0
101.0800,0.0
101.1000,3.0
101.1200,1.0
101.1400,0.0
101.1600,1.0
101.1800,0.0
101.2000,2.0
101.2200,2.0
101.2400,1.0
101.2600,1.0
101.2800,0.0
101.3000,0.0
101.3200,1.0
101.3400,0.0
101.3600,0.0
101.3800,2.0
101.4000,1.0
101.4200,2.0
101.4400,0.0
101.4600,1.0
101.4800,1.0
101.5000,2.0
101.5200,1.0
101.5400,2.0
101.5600,1.0
101.5800,0.0
101.6000,6.0
101.6200,2.0
101.6400,1.0
101.6600,1.0
101.6800,1.0
101.7000,0.0
101.7200,1.0
101.7400,1.0
101.7600,1.0
101.7800,2.0
101.8000,1.0
101.8200,1.0
101.8400,1.0
101.8600,0.0
101.8800,3.0
101.9000,0.0
101.9200,2.0
101.9400,0.0
101.9600,3.0
101.9800,1.0
102.0000,3.0
102.0200,1.0
102.0400,3.0
102.0600,1.0
102.0800,1.0
102.1000,1.0
102.1200,2.0
102.1400,0.0
102.1600,0.0
102.1800,2.0
102.2000,1.0
102.2200,0.0
102.2400,1.0
102.2600,1.0
102.2800,1.0
102.3000,1.0
102.3200,0.0
102.3400,0.0
102.3600,1.0
102.3800,2.0
102.4000,3.0
102.4200,1.0
102.4400,1.0
102.4600,2.0
102.4800,1.0
102.5000,2.0
102.5200,0.0
102.5400,0.0
102.5600,3.0
102.5800,5.0
102.6000,1.0
102.6200,0.0
102.6400,1.0
102.6600,1.0
102.6800,0.0
102.7000,1.0
102.7200,1.0
102.7400,3.0
102.7600,0.0
102.7800,2.0
102.8000,0.0
102.8200,0.0
102.8400,1.0
102.8600,1.0
102.8800,1.0
102.9000,0.0
102.9200,3.0
102.9400,1.0
102.9600,2.0
102.9800,1.0
103.0000,1.0
103.0200,1.0
103.0400,2.0
103.0600,3.0
103.0800,2.0
103.1000,2.0
103.1200,0.0
103.1400,0.0
103.1600,3.0
103.1800,1.0
103.2000,1.0
103.2200,0.0
103.2400,0.0
103.2600,0.0
103.2800,3.0
103.3000,1.0
103.3200,2.0
103.3400,1.0
103.3600,1.0
103.3800,1.0
103.4000,0.0
103.4200,0.0
103.4400,1.0
103.4600,1.0
103.4800,0.0
103.5000,1.0
103.5200,1.0
103.5400,2.0
103.5600,0.0
103.5800,1.0
103.6000,1.0
103.6200,1.0
103.6400,0.0
103.6600,1.0
103.6800,2.0
103.7000,0.0
103.7200,0.0
103.7400,0.0
103.7600,0.0
103.7800,2.0
103.8000,1.0
103.8200,2.0
103.8400,3.0
103.8600,0.0
103.8800,1.0
103.9000,1.0
103.9200,1.0
103.9400,1.0
103.9600,1.0
103.9800,0.0
104.0000,1.0
104.0200,0.0
104.0400,1.0
104.0600,0.0
104.0800,2.0
104.1000,0.0
104.1200,1.0
104.1400,0.0
104.1600,1.0
104.1800,2.0
104.2000,0.0
104.2200,0.0
104.2400,1.0
104.2600,2.0
104.2800,0.0
104.3000,1.0
104.3200,1.0
104.3400,0.0
104.3600,1.0
104.3800,1.0
104.4000,2.0
104.4200,2.0
104.4400,1.0
104.4600,2.0
104.4800,1.0
104.5000,2.0
104.5200,0.0
104.5400,0.0
104.5600,0.0
104.5800,2.0
104.6000,2.0
104.6200,1.0
104.6400,1.0
104.6600,2.0
104.6800,0.0
104.7000,1.0
104.7200,1.0
104.7400,0.0
104.7600,1.0
104.7800,0.0
104.8000,0.0
104.8200,2.0
104.8400,2.0
104.8600,2.0
104.8800,0.0
104.9000,0.0
104.9200,1.0
104.9400,1.0
104.9600,0.0
104.9800,1.0
105.0000,2.0
105.0200,0.0
105.0400,0.0
105.0600,1.0
105.0800,2.0
105.1000,1.0
105.1200,2.0
105.1400,1.0
105.1600,2.0
105.1800,1.0
105.2000,1.0
105.2200,1.0
105.2400,5.0
105.2600,0.0
105.2800,0.0
105.3000,2.0
105.3200,1.0
105.3400,0.0
105.3600,0.0
105.3800,2.0
105.4000,0.0
105.4200,1.0
105.4400,3.0
105.4600,1.0
105.4800,1.0
105.5000,2.0
105.5200,1.0
105.5400,1.0
105.5600,2.0
105.5800,1.0
105.6000,1.0
105.6200,1.0
105.6400,1.0
105.6600,0.0
105.6800,0.0
105.7000,2.0
105.7200,0.0
105.7400,2.0
105.7600,1.0
105.7800,1.0
105.8000,1.0
105.8200,2.0
105.8400,1.0
105.8600,1.0
105.8800,0.0
105.9000,0.0
105.9200,1.0
105.9400,1.0
105.9600,1.0
105.9800,0.0
106.0000,1.0
106.0200,0.0
106.0400,1.0
106.0600,0.0
106.0800,0.0
106.1000,2.0
106.1200,1.0
106.1400,1.0
106.1600,0.0
106.1800,0.0
106.2000,0.0
106.2200,1.0
106.2400,0.0
106.2600,1.0
106.2800,1.0
106.3000,1.0
106.3200,0.0
106.3400,1.0
106.3600,2.0
106.3800,0.0
106.4000,1.0
106.4200,1.0
106.4400,3.0
106.4600,1.0
106.4800,1.0
106.5000,1.0
106.5200,0.0
106.5400,0.0
106.5600,1.0
106.5800,1.0
106.6000,4.0
106.6200,4.0
106.6400,4.0
106.6600,3.0
106.6800,4.0
106.7000,3.0
106.7200,0.0
106.7400,0.0
106.7600,0.0
106.7800,2.0
106.8000,3.0
106.8200,3.0
106.8400,4.0
106.8600,2.0
106.8800,0.0
106.9000,3.0
106.9200,3.0
106.9400,1.0
106.9600,2.0
106.9800,1.0
107.0000,1.0
107.0200,0.0
107.0400,1.0
107.0600,1.0
107.0800,1.0
107.1000,0.0
107.1200,1.0
107.1400,0.0
107.1600,0.0
107.1800,1.0
107.2000,3.0
107.2200,2.0
107.2400,0.0
107.2600,1.0
107.2800,0.0
107.3000,0.0
107.3200,1.0
107.3400,1.0
107.3600,0.0
107.3800,0.0
107.4000,1.0
107.4200,1.0
107.4400,2.0
107.4600,1.0
107.4800,2.0
107.5000,0.0
107.5200,0.0
107.5400,2.0
107.5600,1.0
107.5800,1.0
107.6000,2.0
107.6200,0.0
107.6400,2.0
107.6600,3.0
107.6800,2.0
107.7000,1.0
107.7200,2.0
107.7400,2.0
107.7600,1.0
107.7800,1.0
107.8000,0.0
107.8200,0.0
107.8400,1.0
107.8600,2.0
107.8800,1.0
107.9000,0.0
107.9200,0.0
107.9400,0.0
107.9600,2.0
107.9800,0.0
108.0000,1.0
108.0200,1.0
108.0400,0.0
108.0600,1.0
108.0800,0.0
108.1000,0.0
108.1200,1.0
108.1400,1.0
108.1600,1.0
108.1800,1.0
108.2000,4.0
108.2200,1.0
108.2400,4.0
108.2600,2.0
108.2800,0.0
108.3000,2.0
108.3200,0.0
108.3400,1.0
108.3600,0.0
108.3800,1.0
108.4000,1.0
108.4200,1.0
108.4400,2.0
108.4600,2.0
108.4800,0.0
108.5000,0.0
108.5200,1.0
108.5400,0.0
108.5600,1.0
108.5800,1.0
108.6000,3.0
108.6200,1.0
108.6400,1.0
108.6600,2.0
108.6800,1.0
108.7000,1.0
108.7200,1.0
108.7400,1.0
108.7600,2.0
108.7800,1.0
108.8000,1.0
108.8200,0.0
108.8400,1.0
108.8600,1.0
108.8800,3.0
108.9000,2.0
108.9200,1.0
108.9400,1.0
108.9600,1.0
108.9800,1.0
109.0000,2.0
109.0200,1.0
109.0400,1.0
109.0600,2.0
109.0800,0.0
109.1000,2.0
109.1200,2.0
109.1400,2.0
109.1600,1.0
109.1800,1.0
109.2000,3.0
109.2200,1.0
109.2400,0.0
109.2600,1.0
109.2800,0.0
109.3000,4.0
109.3200,2.0
109.3400,0.0
109.3600,2.0
109.3800,1.0
109.4000,2.0
109.4200,2.0
109.4400,0.0
109.4600,0.0
109.4800,2.0
109.5000,1.0
109.5200,1.0
109.5400,3.0
109.5600,2.0
109.5800,2.0
109.6000,0.0
109.6200,2.0
109.6400,2.0
109.6600,0.0
109.6800,1.0
109.7000,1.0
109.7200,1.0
109.7400,0.0
109.7600,1.0
109.7800,1.0
109.8000,1.0
109.8200,0.0
109.8400,2.0
109.8600,2.0
109.8800,1.0
109.9000,1.0
109.9200,0.0
109.9400,1.0
109.9600,2.0
109.9800,0.0
110.0000,3.0
110.0200,2.0
110.0400,1.0
110.0600,2.0
110.0800,1.0
110.1000,2.0
110.1200,0.0
110.1400,0.0
110.1600,4.0
110.1800,0.0
110.2000,0.0
110.2200,1.0
110.2400,1.0
110.2600,1.0
110.2800,3.0
110.3000,0.0
110.3200,1.0
110.3400,2.0
110.3600,2.0
110.3800,0.0
110.4000,3.0
110.4200,1.0
110.4400,1.0
110.4600,1.0
110.4800,1.0
110.5000,1.0
110.5200,1.0
110.5400,2.0
110.5600,1.0
110.5800,1.0
110.6000,2.0
110.6200,0.0
110.6400,3.0
110.6600,2.0
110.6800,0.0
110.7000,0.0
110.7200,3.0
110.7400,1.0
110.7600,0.0
110.7800,0.0
110.8000,1.0
110.8200,2.0
110.8400,1.0
110.8600,1.0
110.8800,0.0
110.9000,2.0
110.9200,5.0
110.9400,1.0
110.9600,1.0
110.9800,4.0
111.0000,2.0
111.0200,0.0
111.0400,2.0
111.0600,0.0
111.0800,1.0
111.1000,1.0
111.1200,0.0
111.1400,1.0
111.1600,0.0
111.1800,1.0
111.2000,0.0
111.2200,1.0
111.2400,1.0
111.2600,0.0
111.2800,2.0
111.3000,1.0
111.3200,3.0
111.3400,0.0
111.3600,1.0
111.3800,1.0
111.4000,0.0
111.4200,0.0
111.4400,1.0
111.4600,0.0
111.4800,1.0
111.5000,4.0
111.5200,2.0
111.5400,0.0
111.5600,1.0
111.5800,0.0
111.6000,0.0
111.6200,3.0
111.6400,0.0
111.6600,0.0
111.6800,1.0
111.7000,1.0
111.7200,1.0
111.7400,0.0
111.7600,1.0
111.7800,1.0
111.8000,1.0
111.8200,0.0
111.8400,0.0
111.8600,0.0
111.8800,2.0
111.9000,0.0
111.9200,0.0
111.9400,3.0
111.9600,1.0
111.9800,0.0
112.0000,3.0
112.0200,0.0
112.0400,1.0
112.0600,1.0
112.0800,4.0
112.1000,1.0
112.1200,1.0
112.1400,3.0
112.1600,1.0
112.1800,2.0
112.2000,1.0
112.2200,0.0
112.2400,2.0
112.2600,2.0
112.2800,2.0
112.3000,2.0
112.3200,0.0
112.3400,2.0
112.3600,0.0
112.3800,0.0
112.4000,2.0
112.4200,1.0
112.4400,0.0
112.4600,0.0
112.4800,0.0
112.5000,1.0
112.5200,1.0
112.5400,2.0
112.5600,0.0
112.5800,2.0
112.6000,3.0
112.6200,1.0
112.6400,2.0
112.6600,1.0
112.6800,1.0
112.7000,0.0
112.7200,2.0
112.7400,1.0
112.7600,1.0
112.7800,0.0
112.8000,1.0
112.8200,0.0
112.8400,1.0
112.8600,1.0
112.8800,3.0
112.9000,0.0
112.9200,2.0
112.9400,2.0
112.9600,3.0
112.9800,2.0
113.0000,2.0
113.0200,0.0
113.0400,0.0
113.0600,0.0
113.0800,3.0
113.1000,0.0
113.1200,0.0
113.1400,0.0
113.1600,1.0
113.1800,2.0
113.2000,0.0
113.2200,1.0
113.2400,4.0
113.2600,0.0
113.2800,1.0
113.3000,1.0
113.3200,4.0
113.3400,0.0
113.3600,0.0
113.3800,1.0
113.4000,1.0
113.4200,1.0
113.4400,3.0
113.4600,1.0
113.4800,0.0
113.5000,1.0
113.5200,3.0
113.5400,2.0
113.5600,1.0
113.5800,0.0
113.6000,1.0
113.6200,1.0
113.6400,0.0
113.6600,0.0
113.6800,0.0
113.7000,2.0
113.7200,1.0
113.7400,3.0
113.7600,1.0
113.7800,2.0
113.8000,0.0
113.8200,0.0
113.8400,1.0
113.8600,1.0
113.8800,0.0
113.9000,3.0
113.9200,0.0
113.9400,0.0
113.9600,0.0
113.9800,0.0
114.0000,3.0
114.0200,1.0
114.0400,2.0
114.0600,3.0
114.0800,2.0
114.1000,2.0
114.1200,1.0
114.1400,2.0
114.1600,0.0
114.1800,2.0
114.2000,0.0
114.2200,1.0
114.2400,0.0
114.2600,1.0
114.2800,0.0
114.3000,5.0
114.3200,0.0
114.3400,0.0
114.3600,3.0
114.3800,0.0
114.4000,1.0
114.4200,2.0
114.4400,1.0
114.4600,2.0
114.4800,2.0
114.5000,0.0
114.5200,1.0
114.5400,1.0
114.5600,0.0
114.5800,2.0
114.6000,1.0
114.6200,0.0
114.6400,1.0
114.6600,1.0
114.6800,1.0
114.7000,1.0
114.7200,3.0
114.7400,3.0
114.7600,2.0
114.7800,1.0
114.8000,1.0
114.8200,1.0
114.8400,0.0
114.8600,1.0
114.8800,3.0
114.9000,2.0
114.9200,0.0
114.9400,3.0
114.9600,1.0
114.9800,1.0
115.0000,1.0
115.0200,1.0
115.0400,0.0
115.0600,0.0
115.0800,2.0
115.1000,2.0
115.1200,1.0
115.1400,3.0
115.1600,1.0
115.1800,2.0
115.2000,1.0
115.2200,0.0
115.2400,0.0
115.2600,1.0
115.2800,2.0
115.3000,1.0
115.3200,1.0
115.3400,3.0
115.3600,2.0
115.3800,2.0
115.4000,2.0
115.4200,0.0
115.4400,1.0
115.4600,1.0
115.4800,1.0
115.5000,3.0
115.5200,2.0
115.5400,2.0
115.5600,1.0
115.5800,0.0
115.6000,0.0
115.6200,1.0
115.6400,0.0
115.6600,1.0
115.6800,2.0
115.7000,0.0
115.7200,2.0
115.7400,2.0
115.7600,0.0
115.7800,2.0
115.8000,3.0
115.8200,3.0
115.8400,1.0
115.8600,0.0
115.8800,0.0
115.9000,1.0
115.9200,0.0
115.9400,0.0
115.9600,4.0
115.9800,2.0
116.0000,0.0
116.0200,1.0
116.0400,1.0
116.0600,5.0
116.0800,0.0
116.1000,1.0
116.1200,1.0
116.1400,3.0
116.1600,4.0
116.1800,0.0
116.2000,0.0
116.2200,1.0
116.2400,4.0
116.2600,6.0
116.2800,3.0
116.3000,2.0
116.3200,1.0
116.3400,1.0
116.3600,2.0
116.3800,2.0
116.4000,4.0
116.4200,1.0
116.4400,1.0
116.4600,2.0
116.4800,1.0
116.5000,0.0
116.5200,1.0
116.5400,4.0
116.5600,3.0
116.5800,2.0
116.6000,3.0
116.6200,2.0
116.6400,2.0
116.6600,1.0
116.6800,0.0
116.7000,2.0
116.7200,0.0
116.7400,2.0
116.7600,0.0
116.7800,2.0
116.8000,2.0
116.8200,1.0
116.8400,2.0
116.8600,3.0
116.8800,2.0
116.9000,0.0
116.9200,1.0
116.9400,3.0
116.9600,3.0
116.9800,0.0
117.0000,2.0
117.0200,0.0
117.0400,3.0
117.0600,3.0
117.0800,2.0
117.1000,1.0
117.1200,1.0
117.1400,1.0
117.1600,1.0
117.1800,1.0
117.2000,1.0
117.2200,1.0
117.2400,0.0
117.2600,1.0
117.2800,3.0
117.3000,1.0
117.3200,1.0
117.3400,2.0
117.3600,3.0
117.3800,2.0
117.4000,1.0
117.4200,1.0
117.4400,0.0
117.4600,2.0
117.4800,3.0
117.5000,3.0
117.5200,3.0
117.5400,1.0
117.5600,2.0
117.5800,1.0
117.6000,3.0
117.6200,0.0
117.6400,0.0
117.6600,2.0
117.6800,0.0
117.7000,1.0
117.7200,1.0
117.7400,4.0
117.7600,0.0
117.7800,1.0
117.8000,2.0
117.8200,0.0
117.8400,3.0
117.8600,2.0
117.8800,1.0
117.9000,3.0
117.9200,2.0
117.9400,7.0
117.9600,0.0
117.9800,5.0
118.0000,2.0
118.0200,1.0
118.0400,2.0
118.0600,1.0
118.0800,1.0
118.1000,3.0
118.1200,3.0
118.1400,2.0
118.1600,0.0
118.1800,1.0
118.2000,0.0
118.2200,1.0
118.2400,0.0
118.2600,1.0
118.2800,3.0
118.3000,0.0
118.3200,4.0
118.3400,2.0
118.3600,5.0
118.3800,0.0
118.4000,1.0
118.4200,1.0
118.4400,0.0
118.4600,2.0
118.4800,2.0
118.5000,1.0
118.5200,2.0
118.5400,0.0
118.5600,5.0
118.5800,1.0
118.6000,1.0
118.6200,4.0
118.6400,0.0
118.6600,1.0
118.6800,2.0
118.7000,3.0
118.7200,3.0
118.7400,2.0
118.7600,3.0
118.7800,1.0
118.8000,0.0
118.8200,0.0
118.8400,4.0
118.8600,3.0
118.8800,2.0
118.9000,1.0
118.9200,3.0
118.9400,1.0
118.9600,2.0
118.9800,2.0
119.0000,1.0
119.0200,1.0
119.0400,0.0
119.0600,2.0
119.0800,2.0
119.1000,1.0
119.1200,2.0
119.1400,1.0
119.1600,3.0
119.1800,0.0
119.2000,0.0
119.2200,1.0
119.2400,1.0
119.2600,2.0
119.2800,2.0
119.3000,2.0
119.3200,2.0
119.3400,4.0
119.3600,1.0
119.3800,2.0
119.4000,1.0
119.4200,0.0
119.4400,1.0
119.4600,3.0
119.4800,1.0
119.5000,3.0
119.5200,2.0
119.5400,1.0
119.5600,1.0
119.5800,3.0
119.6000,0.0
119.6200,4.0
119.6400,2.0
119.6600,1.0
119.6800,1.0
119.7000,1.0
119.7200,1.0
119.7400,3.0
119.7600,1.0
119.7800,2.0
119.8000,2.0
119.8200,2.0
119.8400,1.0
119.8600,0.0
119.8800,1.0
119.9000,0.0
119.9200,0.0
119.9400,0.0
119.9600,2.0
119.9800,2.0
120.0000,4.0
120.0200,2.0
120.0400,2.0
120.0600,5.0
120.0800,2.0
120.1000,1.0
120.1200,0.0
120.1400,4.0
120.1600,2.0
120.1800,1.0
120.2000,1.0
120.2200,2.0
120.2400,4.0
120.2600,5.0
120.2800,2.0
120.3000,4.0
120.3200,1.0
120.3400,0.0
120.3600,3.0
120.3800,3.0
120.4000,4.0
120.4200,2.0
120.4400,4.0
120.4600,2.0
120.4800,3.0
120.5000,5.0
120.5200,2.0
120.5400,3.0
120.5600,2.0
120.5800,3.0
120.6000,2.0
120.6200,4.0
120.6400,3.0
120.6600,2.0
120.6800,4.0
120.7000,2.0
120.7200,5.0
120.7400,1.0
120.7600,2.0
120.7800,3.0
120.8000,2.0
120.8200,3.0
120.8400,3.0
120.8600,2.0
120.8800,0.0
120.9000,2.0
120.9200,3.0
120.9400,3.0
120.9600,1.0
120.9800,2.0
121.0000,2.0
121.0200,4.0
121.0400,1.0
121.0600,3.0
121.0800,3.0
121.1000,2.0
121.1200,5.0
121.1400,3.0
121.1600,0.0
121.1800,3.0
121.2000,2.0
121.2200,2.0
121.2400,4.0
121.2600,1.0
121.2800,0.0
121.3000,3.0
121.3200,3.0
121.3400,2.0
121.3600,6.0
121.3800,2.0
121.4000,3.0
121.4200,3.0
121.4400,3.0
121.4600,2.0
121.4800,3.0
121.5000,4.0
121.5200,2.0
121.5400,4.0
121.5600,1.0
121.5800,5.0
121.6000,4.0
121.6200,3.0
121.6400,9.0
121.6600,3.0
121.6800,5.0
121.7000,2.0
121.7200,2.0
121.7400,6.0
121.7600,1.0
121.7800,4.0
121.8000,5.0
121.8200,3.0
121.8400,5.0
121.8600,1.0
121.8800,4.0
121.9000,3.0
121.9200,2.0
121.9400,4.0
121.9600,3.0
121.9800,3.0
122.0000,2.0
122.0200,3.0
122.0400,2.0
122.0600,3.0
122.0800,3.0
122.1000,2.0
122.1200,0.0
122.1400,6.0
122.1600,5.0
122.1800,5.0
122.2000,2.0
122.2200,3.0
122.2400,2.0
122.2600,3.0
122.2800,7.0
122.3000,6.0
122.3200,6.0
122.3400,4.0
122.3600,4.0
122.3800,1.0
122.4000,4.0
122.4200,3.0
122.4400,6.0
122.4600,7.0
122.4800,7.0
122.5000,4.0
122.5200,4.0
122.5400,8.0
122.5600,6.0
122.5800,7.0
122.6000,7.0
122.6200,10.0
122.6400,15.0
122.6600,8.0
122.6800,13.0
122.7000,12.0
122.7200,17.0
122.7400,18.0
122.7600,17.0
122.7800,13.0
122.8000,15.0
122.8200,26.0
122.8400,19.0
122.8600,9.0
122.8800,14.0
122.9000,13.0
122.9200,13.0
122.9400,5.0
122.9600,10.0
122.9800,4.0
123.0000,9.0
123.0200,8.0
123.0400,8.0
123.0600,10.0
123.0800,2.0
123.1000,7.0
123.1200,6.0
123.1400,3.0
123.1600,9.0
123.1800,11.0
123.2000,7.0
123.2200,8.0
123.2400,6.0
123.2600,5.0
123.2800,6.0
123.3000,10.0
123.3200,12.0
123.3400,13.0
123.3600,7.0
123.3800,12.0
123.4000,10.0
123.4200,4.0
123.4400,9.0
123.4600,11.0
123.4800,9.0
123.5000,9.0
123.5200,7.0
123.5400,14.0
123.5600,10.0
123.5800,11.0
123.6000,9.0
123.6200,6.0
123.6400,11.0
123.6600,18.0
123.6800,13.0
123.7000,12.0
123.7200,10.0
123.7400,14.0
123.7600,13.0
123.7800,7.0
123.8000,16.0
123.8200,15.0
123.8400,8.0
123.8600,15.0
123.8800,24.0
123.9000,18.0
123.9200,19.0
123.9400,18.0
123.9600,16.0
123.9800,25.0
124.0000,21.0
124.0200,25.0
124.0400,27.0
124.0600,21.0
124.0800,23.0
124.1000,31.0
124.1200,24.0
124.1400,24.0
124.1600,26.0
124.1800,37.0
124.2000,29.0
124.2200,34.0
124.2400,38.0
124.2600,42.0
124.2800,30.0
124.3000,28.0
124.3200,40.0
124.3400,41.0
124.3600,36.0
124.3800,35.0
124.4000,44.0
124.4200,45.0
124.4400,53.0
124.4600,48.0
124.4800,47.0
124.5000,49.0
124.5200,47.0
124.5400,45.0
124.5600,52.0
124.5800,61.0
124.6000,69.0
124.6200,65.0
124.6400,74.0
124.6600,70.0
124.6800,91.0
124.7000,66.0
124.7200,84.0
124.7400,97.0
124.7600,95.0
124.7800,109.0
124.8000,117.0
124.8200,137.0
124.8400,135.0
124.8600,159.0
124.8800,156.0
124.9000,182.0
124.9200,228.0
124.9400,221.0
124.9600,267.0
124.9800,302.0
125.0000,317.0
125.0200,409.0
125.0400,400.0
125.0600,436.0
125.0800,498.0
125.1000,602.0
125.1200,652.0
125.1400,708.0
125.1600,869.0
125.1800,879.0
125.2000,1000.0
125.2200,1067.0
125.2400,1046.0
125.2600,1146.0
125.2800,1136.0
125.3000,1133.0
125.3200,1090.0
125.3400,1014.0
125.3600,1007.0
125.3800,871.0
125.4000,812.0
125.4200,632.0
125.4400,575.0
125.4600,511.0
125.4800,449.0
125.5000,402.0
125.5200,380.0
125.5400,397.0
125.5600,331.0
125.5800,332.0
125.6000,338.0
125.6200,352.0
125.6400,392.0
125.6600,414.0
125.6800,418.0
125.7000,421.0
125.7200,494.0
125.7400,504.0
125.7600,555.0
125.7800,555.0
125.8000,598.0
125.8200,599.0
125.8400,605.0
125.8600,628.0
125.8800,584.0
125.9000,542.0
125.9200,498.0
125.9400,425.0
125.9600,420.0
125.9800,343.0
126.0000,313.0
126.0200,258.0
126.0400,240.0
126.0600,189.0
126.0800,160.0
126.1000,140.0
126.1200,97.0
126.1400,87.0
126.1600,89.0
126.1800,76.0
126.2000,69.0
126.2200,60.0
126.2400,64.0
126.2600,59.0
126.2800,54.0
126.3000,38.0
126.3200,35.0
126.3400,47.0
126.3600,29.0
126.3800,43.0
126.4000,27.0
126.4200,32.0
126.4400,28.0
126.4600,35.0
126.4800,33.0
126.5000,24.0
126.5200,29.0
126.5400,21.0
126.5600,25.0
126.5800,18.0
126.6000,25.0
126.6200,19.0
126.6400,22.0
126.6600,13.0
126.6800,26.0
126.7000,22.0
126.7200,15.0
126.7400,18.0
126.7600,23.0
126.7800,20.0
126.8000,16.0
126.8200,13.0
126.8400,15.0
126.8600,12.0
126.8800,14.0
126.9000,11.0
126.9200,16.0
126.9400,11.0
126.9600,15.0
126.9800,9.0
127.0000,10.0
127.0200,15.0
127.0400,14.0
127.0600,9.0
127.0800,7.0
127.1000,12.0
127.1200,16.0
127.1400,15.0
127.1600,9.0
127.1800,15.0
127.2000,17.0
127.2200,18.0
127.2400,5.0
127.2600,8.0
127.2800,13.0
127.3000,11.0
127.3200,14.0
127.3400,8.0
127.3600,7.0
127.3800,9.0
127.4000,12.0
127.4200,9.0
127.4400,8.0
127.4600,6.0
127.4800,9.0
127.5000,8.0
127.5200,9.0
127.5400,11.0
127.5600,5.0
127.5800,17.0
127.6000,13.0
127.6200,4.0
127.6400,12.0
127.6600,8.0
127.6800,7.0
127.7000,4.0
127.7200,6.0
127.7400,14.0
127.7600,12.0
127.7800,7.0
127.8000,6.0
127.8200,8.0
127.8400,5.0
127.8600,7.0
127.8800,6.0
127.9000,9.0
127.9200,4.0
127.9400,4.0
127.9600,10.0
127.9800,11.0
128.0000,4.0
128.0200,5.0
128.0400,5.0
128.0600,4.0
128.0800,3.0
128.1000,5.0
128.1200,12.0
128.1400,6.0
128.1600,5.0
128.1800,6.0
128.2000,8.0
128.2200,10.0
128.2400,3.0
128.2600,11.0
128.2800,3.0
128.3000,5.0
128.3200,8.0
128.3400,7.0
128.3600,4.0
128.3800,12.0
128.4000,8.0
128.4200,6.0
128.4400,3.0
128.4600,8.0
128.4800,8.0
128.5000,11.0
128.5200,6.0
128.5400,6.0
128.5600,10.0
128.5800,10.0
128.6000,6.0
128.6200,6.0
128.6400,3.0
128.6600,13.0
128.6800,6.0
128.7000,9.0
128.7200,1.0
128.7400,3.0
128.7600,9.0
128.7800,8.0
128.8000,5.0
128.8200,2.0
128.8400,7.0
128.8600,10.0
128.8800,6.0
128.9000,5.0
128.9200,4.0
128.9400,6.0
128.9600,5.0
128.9800,5.0
129.0000,3.0
129.0200,6.0
129.0400,9.0
129.0600,3.0
129.0800,7.0
129.1000,10.0
129.1200,8.0
129.1400,5.0
129.1600,11.0
129.1800,8.0
129.2000,2.0
129.2200,4.0
129.2400,3.0
129.2600,6.0
129.2800,5.0
129.3000,9.0
129.3200,10.0
129.3400,7.0
129.3600,5.0
129.3800,5.0
129.4000,3.0
129.4200,5.0
129.4400,3.0
129.4600,4.0
129.4800,5.0
129.5000,4.0
129.5200,4.0
129.5400,3.0
129.5600,2.0
129.5800,3.0
129.6000,5.0
129.6200,5.0
129.6400,4.0
129.6600,3.0
129.6800,3.0
129.7000,1.0
129.7200,4.0
129.7400,5.0
129.7600,8.0
129.7800,6.0
129.8000,3.0
129.8200,6.0
129.8400,6.0
129.8600,6.0
129.8800,4.0
129.9000,1.0
129.9200,2.0
129.9400,6.0
129.9600,2.0
129.9800,9.0
